0.0, 2.808115893989993
0.0003333444448148272, 4.9175014706445594
0.0006666888896296544, 6.128745329112885
0.0010000333344444817, 6.864460395773428
0.0013333777792593087, 2.30731797660018
0.0016667222240741358, -6.595053085590119
0.0020000666688889633, -10.616084876780338
0.0023334111137037904, -12.54591225566498
0.0026667555585186175, -19.634377538775418
0.0030001000033334445, -24.011650046694026
0.0033334444481482716, -18.78100367058683
0.003666788892963099, -15.947907426145392
0.004000133337777927, -12.125266684968025
0.004333477782592753, -6.2517932134891385
0.004666822227407581, 0.2469262359549198
0.005000166672222407, 7.212053673092218
0.005333511117037235, 12.264308315468911
0.005666855561852062, 16.575310988654042
0.006000200006666889, 18.90314420326491
0.006333544451481717, 22.93303200615884
0.006666888896296543, 16.207939480808324
0.007000233341111371, 2.3272789043795976
0.007333577785926198, -10.710399667634427
0.007666922230741025, -21.24583148204068
0.008000266675555853, -30.700365507351115
0.00833361112037068, -35.80954156763588
0.008666955565185507, -31.610271220868476
0.009000300010000333, -27.373559487616774
0.009333644454815162, -20.327420172460204
0.009666988899629988, -14.911167385663328
0.010000333344444815, -5.800430056406874
0.010333677789259643, 8.641513270433318
0.01066702223407447, 37.96355636111478
0.011000366678889296, 81.362869306346
0.011333711123704125, 99.92245743229662
0.011667055568518951, 77.31171451091028
0.012000400013333778, 30.028374042824105
0.012333744458148607, -1.4996002360387735
0.012667088902963433, -11.754047163031391
0.01300043334777826, -19.11182183212862
0.013333777792593086, -22.446506760219826
0.013667122237407915, -22.605260097533176
0.014000466682222741, -23.067792376196508
0.014333811127037568, -20.076054807839075
0.014667155571852396, -13.646406196641038
0.015000500016667223, -10.612809668459589
0.01533384446148205, -6.228125741827778
0.015667188906296876, -3.280365045078934
0.016000533351111706, -4.874875704129559
0.016333877795926533, -8.114537836134648
0.01666722224074136, -11.654333671743801
0.017000566685556186, -15.127119142366414
0.017333911130371013, -18.62458572309854
0.01766725557518584, -17.31556051426663
0.018000600020000666, -14.820860370784672
0.018333944464815496, -11.670942982213587
0.018667288909630323, -5.249678087805812
0.01900063335444515, 1.819269799259585
0.019333977799259976, 8.108524277213684
0.019667322244074803, 14.173008461335877
0.02000066668888963, 16.29121683277219
0.02033401113370446, 14.416792371702572
0.020667355578519286, 14.34425668255711
0.021000700023334113, 11.587124663973382
0.02133404446814894, 9.31508633415729
0.021667388912963766, 7.72726993816446
0.022000733357778593, 4.251517241612462
0.02233407780259342, 2.8791873872902425
0.02266742224740825, -0.7955975326615885
0.023000766692223076, -1.9243757901203677
0.023334111137037903, -1.7721591139454018
0.02366745558185273, -2.6609791471300266
0.024000800026667556, -3.6275573092169253
0.024334144471482383, -5.311781730012087
0.024667488916297213, -2.3253018819765545
0.02500083336111204, -2.8536190256685616
0.025334177805926866, -2.8491747366764333
0.025667522250741693, 1.7417543526268058
0.02600086669555652, 5.801090781924788
0.026334211140371346, 10.498986719308444
0.026667555585186173, 12.62221534461031
0.027000900030001003, 13.427263072122638
0.02733424447481583, 13.619160357290289
0.027667588919630656, 11.514035557509317
0.028000933364445483, 3.808976440347365
0.02833427780926031, -5.271200923974582
0.028667622254075136, -13.785219423142811
0.029000966698889966, -21.963955912598202
0.029334311143704793, -27.147716448613558
0.02966765558851962, -26.58724277028535
0.030001000033334446, -23.285548845095313
0.030334344478149273, -23.136899454517774
0.0306676889229641, -17.23801184855883
0.03100103336777893, -15.57801938937397
0.03133437781259375, -15.073031438008133
0.03166772225740858, -2.8578197849157743
0.03200106670222341, 22.131419207056833
0.032334411147038236, 60.06876287288033
0.032667755591853066, 80.31229743710097
0.03300110003666789, 59.214316382448104
0.03333444448148272, 15.438713793926736
0.03366778892629754, -8.451527180727403
0.03400113337111237, -12.487084649048693
0.0343344778159272, -15.99419293923841
0.034667822260742026, -14.443552423114763
0.035001166705556856, -14.493418424847018
0.03533451115037168, -17.409619473378058
0.03566785559518651, -15.02087322626591
0.03600120004000133, -10.379821641447775
0.03633454448481616, -8.625255950249766
0.03666788892963099, -6.370015911125986
0.037001233374445816, -4.32718315264856
0.037334577819260646, -3.414233541407345
0.03766792226407547, -2.123297391297056
0.0380012667088903, -1.5539788141578113
0.03833461115370512, -3.9983683021873286
0.03866795559851995, -1.8222341302177472
0.03900130004333478, 1.0577530662249854
0.039334644488149606, -1.2263945551819995
0.039667988932964436, 3.0339457530681924
0.04000133337777926, 4.262896392155656
0.04033467782259409, 2.891098173274811
0.04066802226740892, 4.708232777459275
0.04100136671222374, 8.57232508098318
0.04133471115703857, 5.18420409837384
0.041668055601853396, -2.9721373518707583
0.042001400046668226, 1.746950867529272
0.04233474449148305, 2.2417277509988875
0.04266808893629788, 0.41036748235611364
0.04300143338111271, 2.244568361247747
0.04333477782592753, 0.14180966603225276
0.04366812227074236, 0.10569246834175505
0.044001466715557186, 1.8771824782236357
0.044334811160372016, 1.9113431432212509
0.04466815560518684, 1.5439950081457035
0.04500150005000167, 1.741645610769227
0.0453348444948165, 0.08173376789736064
0.04566818893963132, -0.34613961328854126
0.04600153338444615, 0.45453618413645747
0.046334877829260976, 1.6750877229264491
0.046668222274075806, -1.3459023640595302
0.047001566718890636, -4.194820843547623
0.04733491116370546, -2.306451634848834
0.04766825560852029, -2.9731202496420392
0.04800160005333511, -1.40261867622585
0.04833494449814994, 2.31608640463941
0.048668288942964766, 9.395232291859463
0.049001633387779596, 11.645023753198728
0.049334977832594426, 5.1239883188133435
0.04966832227740925, 0.9777238465899125
0.05000166672222408, -5.165917179523029
0.0503350111670389, -10.73422513139603
0.05066835561185373, -15.410458518799276
0.051001700056668556, -15.545578865458634
0.051335044501483386, -15.545798255846154
0.051668388946298216, -15.498286635475619
0.05200173339111304, -13.53308153051363
0.05233507783592787, -19.59781402059465
0.05266842228074269, -16.381091076202882
0.05300176672555752, -11.800884852009597
0.053335111170372346, 2.849660935245012
0.053668455615187176, 40.972544933485224
0.054001800060002006, 69.06792970038
0.05433514450481683, 65.80649773946826
0.05466848894963166, 31.185982981088355
0.05500183339444648, -2.245784748516318
0.05533517783926131, -10.852249695636278
0.05566852228407614, -12.182161353225034
0.056001866728890966, -13.058476645998084
0.056335211173705796, -11.054563236161746
0.05666855561852062, -11.401172645649726
0.05700190006333545, -6.957761970083202
0.05733524450815027, -8.819176672328819
0.0576685889529651, -9.003943909828065
0.05800193339777993, -7.248966688995655
0.058335277842594756, -14.28544440668011
0.058668622287409586, -5.658235038444637
0.05900196673222441, -3.841118542512322
0.05933531117703924, -6.065204045025704
0.05966865562185406, -3.6486630188051015
0.06000200006666889, -6.527064846149212
0.06033534451148372, -1.6486591017914893
0.060668688956298546, -1.1058919030448884
0.061002033401113376, 0.2202492333911934
0.0613353778459282, 3.1608694785026774
0.06166872229074303, 5.001480672538921
0.06200206673555786, 7.266463206052698
0.06233541118037268, 8.724375046105386
0.0626687556251875, 9.220265182370724
0.06300210007000234, 6.420923445574008
0.06333544451481717, 8.028813145695104
0.06366878895963199, 3.1379833632861827
0.06400213340444683, 2.689083594386106
0.06433547784926165, -0.06810161862239017
0.06466882229407647, -8.798056972905567
0.0650021667388913, -0.15473840367946856
0.06533551118370613, 0.5972321276469831
0.06566885562852096, -2.1172310146992865
0.06600220007333578, -0.051606907682129055
0.06633554451815062, -2.992459167089728
0.06666888896296544, -2.637992964955796
0.06700223340778026, -2.8386821251441203
0.06733557785259509, -5.0500097713991785
0.06766892229740992, -5.707081451947646
0.06800226674222475, -4.197877025533744
0.06833561118703957, -2.6202420226640686
0.0686689556318544, 0.9690400845499911
0.06900230007666923, 5.437163227140887
0.06933564452148405, 8.457449573083156
0.06966898896629888, 8.515757135761561
0.07000233341111371, 6.236184576187098
0.07033567785592854, 2.6893413061017877
0.07066902230074336, -1.7502149989085547
0.0710023667455582, -4.9624406454678445
0.07133571119037302, -8.565221078243738
0.07166905563518784, -10.371512176431978
0.07200240008000267, -11.266229446366332
0.0723357445248175, -12.4946355277541
0.07266908896963233, -11.895618748305111
0.07300243341444715, -14.321106306208804
0.07333577785926199, -14.476793231632374
0.07366912230407681, -5.87582118242061
0.07400246674889163, 10.98586203824399
0.07433581119370646, 46.7827304243046
0.07466915563852129, 73.50133742291015
0.07500250008333612, 55.57291167490595
0.07533584452815094, 15.07843501296791
0.07566918897296578, -10.591215772944231
0.0760025334177806, -16.291294488240094
0.07633587786259542, -16.780364031548338
0.07666922230741025, -15.64462613634796
0.07700256675222508, -17.039024377428998
0.0773359111970399, -14.044775383184867
0.07766925564185473, -11.388164341788455
0.07800260008666957, -12.56497586915771
0.07833594453148439, -9.840651120600938
0.07866928897629921, -10.263676320709878
0.07900263342111405, -8.419842527920132
0.07933597786592887, -7.164988537183561
0.0796693223107437, -6.167680914888396
0.08000266675555852, -4.256406713312226
0.08033601120037336, -2.135520338207451
0.08066935564518818, 0.49540764053333497
0.081002700090003, 0.6369714415721113
0.08133604453481784, 3.1209043176120312
0.08166938897963266, 4.142239394131173
0.08200273342444749, 4.6295394753267445
0.08233607786926231, 4.412677757882634
0.08266942231407715, 9.007038451896001
0.08300276675889197, 8.51039332041636
0.08333611120370679, 2.2296019212986082
0.08366945564852163, 4.502747549967882
0.08400280009333645, 1.2867793370248823
0.08433614453815128, -0.5632046615324118
0.0846694889829661, 1.1976300038705028
0.08500283342778094, 0.32815930873933663
0.08533617787259576, 0.008675462651110522
0.08566952231741058, 1.1694588224718778
0.08600286676222542, 2.7762946368940398
0.08633621120704024, 0.9494601198570565
0.08666955565185507, 2.5459940772143823
0.08700290009666989, 3.6700166126484715
0.08733624454148473, 2.339753819659529
0.08766958898629955, 4.3526072779129805
0.08800293343111437, 5.155938234883335
0.08833627787592921, 0.03354756463624531
0.08866962232074403, -1.0205300924860277
0.08900296676555886, -3.247909025213584
0.08933631121037368, -11.203210822212787
0.08966965565518852, -5.462663799327672
0.09000300010000334, -0.39144068398004306
0.09033634454481816, 0.4017298627453285
0.090669688989633, 5.432019507330821
0.09100303343444782, 4.34668436521126
0.09133637787926265, 5.292200297920193
0.09166972232407747, 4.374543684723787
0.0920030667688923, -1.787515848055278
0.09233641121370713, -6.50514604565582
0.09266975565852195, -10.786555442839296
0.09300310010333679, -13.278536559994961
0.09333644454815161, -14.682716880707764
0.09366978899296644, -13.932976644888022
0.09400313343778127, -15.450117064591135
0.0943364778825961, -16.458435962547213
0.09466982232741092, -16.063523999306945
0.09500316677222574, -17.844033500990438
0.09533651121704058, -8.506505291066135
0.0956698556618554, 17.925393226637674
0.09600320010667023, 56.22374396202571
0.09633654455148506, 72.86598149474116
0.09666988899629989, 47.12061338532347
0.09700323344111471, 9.983354370485566
0.09733657788592953, -9.820882836671835
0.09766992233074437, -10.73983977802043
0.09800326677555919, -10.595556482363705
0.09833661122037402, -11.347183685755184
0.09866995566518885, -10.190035076286872
0.09900330011000368, -8.898034130894072
0.0993366445548185, -8.595941938461957
0.09966998899963332, -7.447074219863477
0.10000333344444816, -6.827915213072306
0.10033667788926298, -11.023315759989845
0.1006700223340778, -5.936309363137497
0.10100336677889264, -3.6198480308813457
0.10133671122370747, -6.00478403617764
0.10167005566852229, -4.202082981370044
0.10200340011333711, -5.130078011717507
0.10233674455815195, -1.7312498115663253
0.10267008900296677, 2.606157682637021
0.1030034334477816, 3.8113093540440057
0.10333677789259643, 4.157822718878972
0.10367012233741126, 7.412425678477165
0.10400346678222608, 8.518783967598695
0.1043368112270409, 8.03110364407641
0.10467015567185574, 9.713053492327607
0.10500350011667056, 6.613363880277899
0.10533684456148538, 2.778086011964432
0.10567018900630022, 1.1094872679550583
0.10600353345111505, -1.2498366798410516
0.10633687789592987, -5.514326697147224
0.10667022234074469, -5.342144977586079
0.10700356678555953, -3.273169001245015
0.10733691123037435, -3.4760292772493946
0.10767025567518917, -1.1677017713668696
0.10800360012000401, -0.6278724310123014
0.10833694456481884, -1.1904508029520338
0.10867028900963366, -0.7680949883124331
0.1090036334544485, -1.328616422949202
0.10933697789926332, -2.861623521152036
0.10967032234407814, -3.561716077128345
0.11000366678889296, -3.8734018991509944
0.1103370112337078, -4.856559770126527
0.11067035567852263, -3.7756309694590993
0.11100370012333745, -3.163065819214504
0.11133704456815229, -4.553510807907669
0.11167038901296711, -2.413586581980182
0.11200373345778193, -0.2074071799215249
0.11233707790259675, -5.526943386209876
0.11267042234741159, -7.750629683019392
0.11300376679222641, -2.4174854380153574
0.11333711123704124, 2.7977226777745403
0.11367045568185608, 8.990952303252921
0.1140038001266709, 19.42421304196965
0.11433714457148572, 22.74866180643081
0.11467048901630054, 17.133377875087472
0.11500383346111538, 13.866176854093123
0.1153371779059302, 5.9557132554849
0.11567052235074503, -1.6910592467938272
0.11600386679555987, -6.054602381420762
0.11633721124037469, -9.994134675831104
0.11667055568518951, -11.835117201591585
0.11700390013000433, -12.129346761901967
0.11733724457481917, -11.338151798684166
0.117670589019634, -18.1735401429499
0.11800393346444882, -22.550536441597515
0.11833727790926366, -13.176982563057042
0.11867062235407848, 8.498307052087684
0.1190039667988933, 47.841065855326406
0.11933731124370812, 74.74127610788906
0.11967065568852296, 38.88540885028998
0.12000400013333778, -9.91092749134103
0.12033734457815261, -21.03134185467526
0.12067068902296745, -24.545768388042717
0.12100403346778227, -20.910275569874248
0.12133737791259709, -16.22524610903381
0.12167072235741193, -16.779337564260736
0.12200406680222675, -12.978364293228045
0.12233741124704157, -9.686903883875686
0.1226707556918564, -8.813007972494848
0.12300410013667123, -9.68246003465698
0.12333744458148606, -7.734679961566873
0.12367078902630088, -5.799131574002306
0.12400413347111572, -4.7598152485002965
0.12433747791593054, -2.046451900213361
0.12467082236074536, 0.08058485103327495
0.1250041668055602, 2.585956551056923
0.125337511250375, 7.745737294737975
0.12567085569518985, 9.116843229503854
0.12600420014000469, 11.195443491853695
0.1263375445848195, 17.557471321607792
0.12667088902963433, 17.40308858158448
0.12700423347444917, 13.895962824136717
0.12733757791926398, 12.366199264975887
0.12767092236407881, 11.088693941340436
0.12800426680889365, 7.108272428991856
0.12833761125370846, 3.064153080240766
0.1286709556985233, -1.3308896330458548
0.1290043001433381, -1.2603347993977918
0.12933764458815294, -1.9145367963359723
0.12967098903296778, -6.952911482891038
0.1300043334777826, -6.632376230538974
0.13033767792259743, -7.040988036641365
0.13067102236741227, -7.517742776679315
0.13100436681222707, -5.496855605593003
0.1313377112570419, -0.647241465613237
0.13167105570185675, -3.24457412331318
0.13200440014667156, -3.118191539768058
0.1323377445914864, -2.188341030887391
0.13267108903630123, -9.0095991703126
0.13300443348111604, -4.25160106537161
0.13333777792593088, -3.343118251533446
0.1336711223707457, -3.4065934443671515
0.13400446681556052, -3.0658939608352402
0.13433781126037536, -5.675685877268089
0.13467115570519017, -4.066321451017308
0.135004500150005, -2.1042064245021526
0.13533784459481984, -2.2121997585052013
0.13567118903963465, -5.72315223007599
0.1360045334844495, -2.3890120473108647
0.13633787792926433, -2.5233799106039196
0.13667122237407914, -1.519793497189596
0.13700456681889397, 1.5457899297567785
0.1373379112637088, 4.440355215382469
0.13767125570852362, 11.55443288910418
0.13800460015333846, 13.527075256935351
0.13833794459815327, 18.56184555015694
0.1386712890429681, 16.78728777181399
0.13900463348778294, 9.599572093588007
0.13933797793259775, 4.279663151058836
0.1396713223774126, -0.3205550642338082
0.14000466682222742, -7.947963154622
0.14033801126704223, -10.17879379812754
0.14067135571185707, -4.8913731587267515
0.1410047001566719, -12.91819845234846
0.14133804460148672, -12.612263993771279
0.14167138904630155, -14.435131879441396
0.1420047334911164, -19.23073875687852
0.1423380779359312, -10.603556882041879
0.14267142238074604, 2.1163214053403117
0.14300476682556088, 35.674649400386556
0.14333811127037568, 73.33145783698237
0.14367145571519052, 60.420516829557826
0.14400480016000533, 5.399004254967737
0.14433814460482017, -19.44594935808655
0.144671489049635, -19.60338576581099
0.14500483349444981, -22.09432247254582
0.14533817793926465, -20.528861360373405
0.1456715223840795, -16.73773968289314
0.1460048668288943, -17.21448447077345
0.14633821127370913, -11.566868953139043
0.14667155571852397, -1.5432241126184083
0.14700490016333878, -10.688458891950336
0.14733824460815362, -10.490221698196656
0.14767158905296845, -6.092556957657102
0.14800493349778326, -8.132869199530948
0.1483382779425981, -6.66377539269032
0.1486716223874129, -4.618501450017388
0.14900496683222775, -2.2313899131242563
0.14933831127704258, -0.10632010630964839
0.1496716557218574, 6.366872908053928
0.15000500016667223, 5.288434239484133
0.15033834461148707, 6.234382549074864
0.15067168905630188, 10.526392394610621
0.15100503350111671, 10.394375963543366
0.15133837794593155, 9.644177926341785
0.15167172239074636, 9.799042688275415
0.1520050668355612, 8.729291577416125
0.15233841128037603, 4.35785270159926
0.15267175572519084, 4.884181957455792
0.15300510017000568, 5.97100449526627
0.1533384446148205, 2.192474228017769
0.15367178905963533, 1.5579343708722018
0.15400513350445016, 0.6947032148884293
0.15433847794926497, -1.923669824613489
0.1546718223940798, 1.3762367444630175
0.15500516683889465, -0.47062337647958374
0.15533851128370946, -0.8298736111098151
0.1556718557285243, 1.9573594546039264
0.15600520017333913, 0.977996543874646
0.15633854461815394, -0.587146659052497
0.15667188906296878, -1.2954812734727303
0.15700523350778361, -2.070988661013822
0.15733857795259842, -7.708930987431795
0.15767192239741326, -5.502968827466133
0.1580052668422281, -6.267535881133691
0.1583386112870429, -5.934226849258717
0.15867195573185774, 2.0679679937288262
0.15900530017667255, -0.4343630528525537
0.1593386446214874, -6.648450367167796
0.15967198906630223, -5.055899139233224
0.16000533351111704, -1.3810254610616761
0.16033867795593187, -5.806661280609738
0.1606720224007467, -5.130640142744741
0.16100536684556152, -5.64364187987101
0.16133871129037636, -6.930303688397133
0.1616720557351912, -6.491656715251324
0.162005400180006, -7.81971505760905
0.16233874462482084, -0.2784248952235435
0.16267208906963568, 3.186679823558114
0.1630054335144505, 10.033578649816818
0.16333877795926532, 15.117176179555123
0.16367212240408013, 13.437237655531407
0.16400546684889497, 14.034481503215604
0.1643388112937098, 8.895179081186203
0.16467215573852462, 3.0096306131193034
0.16500550018333945, -3.636695358994089
0.1653388446281543, -5.902836072877682
0.1656721890729691, -6.193993894570982
0.16600553351778394, -9.675558375818035
0.16633887796259877, -9.802720229369942
0.16667222240741358, -9.305836135927162
0.16700556685222842, -11.485855983470968
0.16733891129704326, -14.809251114691822
0.16767225574185807, -8.267677525431502
0.1680056001866729, 14.782154518857128
0.1683389446314877, 55.830070811181045
0.16867228907630255, 76.41457682877713
0.1690056335211174, 42.79954653762603
0.1693389779659322, -0.9955814227615605
0.16967232241074703, -17.342284307416957
0.17000566685556187, -14.561346869520122
0.17033901130037668, -17.55553602061169
0.17067235574519152, -16.406270807230868
0.17100570019000635, -14.797937290561585
0.17133904463482116, -20.628480769650487
0.171672389079636, -13.05622364845592
0.17200573352445084, -12.263227471243509
0.17233907796926565, -12.368715603681416
0.17267242241408048, -10.266898497131539
0.17300576685889532, -12.819702811498654
0.17333911130371013, -9.534928732650478
0.17367245574852497, -6.5055497197437955
0.17400580019333978, -6.942368561087377
0.17433914463815461, -8.492685255922199
0.17467248908296945, -3.3838012324366824
0.17500583352778426, 0.21100607768290303
0.1753391779725991, 3.2042840152539176
0.17567252241741393, 4.660955455473184
0.17600586686222874, 4.843718547584714
0.17633921130704358, 8.958093595920984
0.17667255575185842, 9.531808988840373
0.17700590019667323, 11.219523289891956
0.17733924464148806, 10.262198389115612
0.1776725890863029, 8.55257759065817
0.1780059335311177, 9.037377803616707
0.17833927797593255, 6.040919603833239
0.17867262242074736, 5.8704384511436185
0.1790059668655622, 5.740586629843447
0.17933931131037703, 2.782241149748315
0.17967265575519184, 3.6792526431871613
0.18000600020000668, 5.799632439294345
0.18033934464482151, 2.856158015766627
0.18067268908963632, -0.045626125087959934
0.18100603353445116, 2.244941264295237
0.181339377979266, 1.2798120406285278
0.1816727224240808, -0.19827516068792894
0.18200606686889564, -0.19656861818707982
0.18233941131371048, -1.5211624729038307
0.1826727557585253, -1.4640037380913815
0.18300610020334013, -2.759161683976317
0.18333944464815494, -4.537589246753616
0.18367278909296977, -6.9245774910678985
0.1840061335377846, -5.45847713419596
0.18433947798259942, -6.0073760320890885
0.18467282242741426, -7.281626810707201
0.1850061668722291, -4.988366900907131
0.1853395113170439, -6.054654296834749
0.18567285576185874, -5.857966763621446
0.18600620020667358, -6.798051111810417
0.1863395446514884, -7.6288420598745645
0.18667288909630322, -7.4983963128718205
0.18700623354111806, -2.3334200502958753
0.18733957798593287, 2.8805643389881643
0.1876729224307477, 6.993711732541959
0.18800626687556254, 14.373999225935492
0.18833961132037735, 13.339478347035428
0.1886729557651922, 9.991808211374396
0.189006300210007, 3.7279693129921694
0.18933964465482184, -1.2915628269709774
0.18967298909963667, -5.783143759691177
0.19000633354445148, -11.526901908954212
0.19033967798926632, -10.124836460026515
0.19067302243408116, -11.766738496891236
0.19100636687889597, -11.244939604597299
0.1913397113237108, -10.043626941069421
0.19167305576852564, -16.12787337679052
0.19200640021334045, -17.360576382637294
0.1923397446581553, -8.801039434540467
0.19267308910297012, 19.30754226684327
0.19300643354778493, 62.66765611376451
0.19333977799259977, 76.00715671617832
0.19367312243741458, 45.17831629591388
0.19400646688222942, 3.7938965541891783
0.19433981132704425, -12.38390652461386
0.19467315577185906, -10.28648646943891
0.1950065002166739, -14.12397772531256
0.19533984466148874, -14.219428901693687
0.19567318910630355, -12.112823311037417
0.19600653355111838, -14.03510318510256
0.19633987799593322, -12.374129193204412
0.19667322244074803, -9.807339339248843
0.19700656688556287, -9.885838843913767
0.1973399113303777, -6.639304070374629
0.1976732557751925, -5.593225189249138
0.19800660022000735, -6.640848727772354
0.19833994466482216, -7.429799637485873
0.198673289109637, -8.90182239325918
0.19900663355445183, -7.341233322879634
0.19933997799926664, -7.468751406218311
0.19967332244408148, -2.3027854995734947
0.20000666688889632, -0.3356147342875131
0.20034001133371113, -1.3203590117151185
0.20067335577852596, 1.5448974600042513
0.2010067002233408, 3.5862731739577653
0.2013400446681556, 7.234850349792049
0.20167338911297045, 7.407522746594447
0.20200673355778528, 7.784400520870533
0.2023400780026001, 7.159576479127541
0.20267342244741493, 7.219623165107213
0.20300676689222977, 4.881666026070098
0.20334011133704458, 3.549867285469441
0.2036734557818594, 5.61629992997676
0.20400680022667422, 2.7885256692975577
0.20434014467148906, 3.3835110371245234
0.2046734891163039, 3.9733130222451893
0.2050068335611187, 4.164691972845141
0.20534017800593354, 2.171589496826642
0.20567352245074838, 1.9072092693056737
0.2060068668955632, 1.4648624721254624
0.20634021134037803, 0.5493260628953656
0.20667355578519286, 2.9189453131946785
0.20700690023000767, -2.9464696758042503
0.2073402446748225, -3.4448271269568504
0.20767358911963735, -1.5692366747699076
0.20800693356445216, -5.660918312875008
0.208340278009267, -5.257587925023451
0.2086736224540818, -1.8068159609470074
0.20900696689889664, -4.919851871357771
0.20934031134371148, -3.9727805468354602
0.2096736557885263, -3.466360334434534
0.21000700023334112, -11.225984558525663
0.21034034467815596, -5.841790988108781
0.21067368912297077, -1.5822200248874152
0.2110070335677856, -0.04336179345471436
0.21134037801260044, 4.000385442521086
0.21167372245741525, 7.886565949724423
0.2120070669022301, 11.600830233708134
0.21234041134704493, 7.8892714094085985
0.21267375579185974, 4.3009615695291625
0.21300710023667457, -4.079070324808622
0.21334044468148938, -7.84176656206681
0.21367378912630422, -8.031892481352518
0.21400713357111906, -12.801763068758437
0.21434047801593387, -13.957616730593198
0.2146738224607487, -13.575758470617973
0.21500716690556354, -11.836161445140927
0.21534051135037835, -16.170234840766625
0.2156738557951932, -17.651452587725505
0.21600720024000802, -10.598299288240515
0.21634054468482283, 7.607928106079417
0.21667388912963767, 46.112839072147054
0.2170072335744525, 72.95548986375522
0.21734057801926732, 62.91371662654602
0.21767392246408215, 26.4095352395583
0.218007266908897, -5.265099171177972
0.2183406113537118, -14.014641140750246
0.21867395579852664, -12.49895238376224
0.21900730024334145, -12.318621420356724
0.21934064468815628, -14.851408791545383
0.21967398913297112, -11.531321240385125
0.22000733357778593, -9.362303034629031
0.22034067802260077, -9.709411555830943
0.2206740224674156, -6.045884014021138
0.2210073669122304, -7.927985317196583
0.22134071135704525, -8.89605074386272
0.2216740558018601, -7.268369447397988
0.2220074002466749, -8.891554023675731
0.22234074469148973, -9.809716175316614
0.22267408913630457, -8.998599571089386
0.22300743358111938, -6.623145148890659
0.22334077802593422, -8.175969690467426
0.22367412247074903, -0.7619815247374149
0.22400746691556386, 6.611697412715887
0.2243408113603787, 0.7546119966224536
0.2246741558051935, 3.3745899409187827
0.22500750025000835, 5.957444880133326
0.22534084469482318, 6.0847153924055295
0.225674189139638, 7.928329612218493
0.22600753358445283, 8.682433026020309
0.22634087802926767, 7.779232407493741
0.22667422247408248, 7.10223422917191
0.2270075669188973, 8.618181413891314
0.22734091136371215, 4.304141958818743
0.22767425580852696, 3.5183950086909856
0.2280076002533418, 3.2949504457929493
0.22834094469815663, 0.5043503019483273
0.22867428914297144, -0.8704138438452489
0.22900763358778628, -1.4404197840166741
0.2293409780326011, -3.106645986953895
0.22967432247741593, -3.3498471622462866
0.23000766692223076, -1.3252389442806582
0.23034101136704557, -5.248148555367841
0.2306743558118604, -6.458874893663418
0.23100770025667525, -6.130864657614161
0.23134104470149006, -6.472895308339755
0.2316743891463049, -4.962023812263643
0.23200773359111973, -1.3599064866191464
0.23234107803593454, 2.3129067487619994
0.23267442248074938, 5.877489466651828
0.2330077669255642, 11.746639039378756
0.23334111137037902, 8.245380911659165
0.23367445581519386, 2.3731636411483605
0.23400780026000867, -1.2313963657186369
0.2343411447048235, -6.797821188370305
0.23467448914963834, -10.512127952148091
0.23500783359445315, -13.775279975325113
0.235341178039268, -14.551451084890045
0.23567452248408283, -13.577675342029087
0.23600786692889764, -9.310281427153482
0.23634121137371247, -10.227567994972826
0.2366745558185273, -17.76195468120805
0.23700790026334212, -13.750564811567337
0.23734124470815696, -0.8963376753800105
0.2376745891529718, 29.82733488694621
0.2380079335977866, 66.2716315415339
0.23834127804260144, 68.48954213712067
0.23867462248741625, 38.688393628190056
0.2390079669322311, 2.2411851977081128
0.23934131137704592, -13.746011315112728
0.23967465582186073, -14.889042281069656
0.24000800026667557, -13.16772626971348
0.2403413447114904, -12.864975575424536
0.24067468915630522, -11.719913806049602
0.24100803360112005, -6.67165441501822
0.2413413780459349, -8.516152884419384
0.2416747224907497, -8.341944661945016
0.24200806693556454, -11.613612653410607
0.24234141138037937, -12.965600368024656
0.24267475582519418, -6.008907446116127
0.24300810027000902, -4.674713431669035
0.24334144471482386, -2.655987140793326
0.24367478915963867, 0.3860262513039334
0.2440081336044535, -0.49328795565384365
0.2443414780492683, 0.08991827674257902
0.24467482249408315, -0.4683325432326786
0.245008166938898, -1.6479188608091384
0.2453415113837128, 0.4437523026538104
0.24567485582852763, 1.1452815412439348
0.24600820027334247, 3.2292863994462975
0.24634154471815728, 4.505091622043766
0.24667488916297212, 3.8368438232696835
0.24700823360778695, 4.520517279321519
0.24734157805260176, 5.192341870409725
0.2476749224974166, 1.3104777367838503
0.24800826694223144, 1.225601093489416
0.24834161138704625, 0.991340214230485
0.24867495583186108, -3.098223699715371
0.2490083002766759, 0.6438831900752096
0.24934164472149073, -0.7525888890543717
0.24967498916630557, -1.7078112188954266
0.2500083336111204, -1.6424442512452953
0.2503416780559352, -3.093276330088696
0.25067502250075, -1.623720989136265
0.2510083669455649, -1.5678963186968924
0.2513417113903797, -2.5419915430763007
0.2516750558351945, -5.174358151998897
0.25200840028000937, -4.272869094368649
0.2523417447248242, -1.910985567518801
0.252675089169639, 2.251338021858696
0.25300843361445385, 5.281301595924301
0.25334177805926866, 9.036422111545349
0.2536751225040835, 12.509996157628988
0.25400846694889834, 12.04211883985935
0.25434181139371315, 5.904219332258625
0.25467515583852796, 0.21166073329097035
0.2550085002833428, -0.4196827964680043
0.25534184472815763, -7.497086720379888
0.25567518917297244, -10.386685399289075
0.2560085336177873, -13.09263227635309
0.2563418780626021, -14.97340845952385
0.2566752225074169, -12.551995680844403
0.25700856695223173, -16.19703754148018
0.2573419113970466, -17.840088717422976
0.2576752558418614, -16.093637818440598
0.2580086002866762, -2.930931342271192
0.2583419447314911, 29.297888503953093
0.2586752891763059, 67.18305835569122
0.2590086336211207, 68.93797311860287
0.25934197806593556, 30.496294021546074
0.2596753225107504, -1.2219179786439902
0.2600086669555652, -14.997747147715536
0.26034201140038005, -15.246906920544586
0.26067535584519486, -15.299865264233674
0.26100870029000967, -16.213956612287515
0.26134204473482453, -11.412050634116788
0.26167538917963934, -12.193567624610258
0.26200873362445415, -12.352654949481757
0.262342078069269, -10.229658550133568
0.2626754225140838, -8.166411203862257
0.26300876695889863, -8.330810210743902
0.2633421114037135, -8.921005741470106
0.2636754558485283, -6.476390164167821
0.2640088002933431, -7.692672583795915
0.264342144738158, -6.631559101414269
0.2646754891829728, -1.5490693830176543
0.2650088336277876, -0.7630983340188662
0.26534217807260246, 3.4642806057293285
0.2656755225174173, 8.147801080428184
0.2660088669622321, 5.332777412421379
0.2663422114070469, 5.096416714241822
0.26667555585186176, 4.075811044669365
0.26700890029667657, 4.05250467018214
0.2673422447414914, 6.7396502159204354
0.26767558918630624, 9.970192826179238
0.26800893363112105, 10.37866718620567
0.26834227807593586, 6.807408152756439
0.2686756225207507, 9.032339609240536
0.26900896696556553, 4.544338806171599
0.26934231141038034, -1.2897174513822254
0.2696756558551952, 1.1898678779299665
0.27000900030001, -0.6068459986153525
0.2703423447448248, -4.226676805946868
0.2706756891896397, -3.953713306050482
0.2710090336344545, -3.670895404977692
0.2713423780792693, -5.363764673050957
0.2716757225240842, -4.117074058723408
0.272009066968899, -1.85623444751007
0.2723424114137138, -4.557078339147119
0.27267575585852866, -5.4282042748512005
0.27300910030334347, -5.0042768658894445
0.2733424447481583, -6.051911171051129
0.27367578919297314, 0.5079702936769781
0.27400913363778795, 3.3209223155912313
0.27434247808260276, 6.93613886063895
0.2746758225274176, 13.744353848197155
0.27500916697223243, 11.246465977112962
0.27534251141704724, 8.255183559409396
0.2756758558618621, 1.4375526155300349
0.2760092003066769, -7.146213177067256
0.2763425447514917, -12.448598414947245
0.27667588919630653, -14.498612297846499
0.2770092336411214, -15.334934231558709
0.2773425780859362, -14.864662666911126
0.277675922530751, -15.13309011857877
0.2780092669755659, -18.305636710340064
0.2783426114203807, -17.772377338913504
0.2786759558651955, -16.857118806865614
0.27900930031001037, -10.222999345483178
0.2793426447548252, 17.484397845396916
0.27967598919964, 65.4952690506413
0.28000933364445485, 81.75830926648516
0.28034267808926966, 45.32208174371618
0.28067602253408447, 5.02145981919303
0.28100936697889933, -12.82157982339476
0.28134271142371414, -12.675932356007376
0.28167605586852895, -12.010799248810407
0.2820094003133438, -12.306620541338976
0.2823427447581586, -10.30443129902105
0.28267608920297344, -8.868845737679193
0.2830094336477883, -7.7437817336859815
0.2833427780926031, -11.380118200893158
0.2836761225374179, -7.354465512143917
0.2840094669822328, -3.8720919831436253
0.2843428114270476, -9.143570420110263
0.2846761558718624, -6.391831545200294
0.28500950031667727, -5.092566593998339
0.2853428447614921, -8.004317845838468
0.2856761892063069, -4.155331102590544
0.28600953365112175, -0.7865115021684685
0.28634287809593656, -2.2685883347590323
0.28667622254075137, 3.189816824149551
0.2870095669855662, 3.626627698357258
0.28734291143038104, 1.8826470735081058
0.28767625587519585, 7.557883810964587
0.28800960032001066, 5.3049639175024135
0.2883429447648255, 5.498582809003793
0.28867628920964034, 4.537363009190774
0.28900963365445514, 3.3657735400366358
0.28934297809927, 1.7130263664673255
0.2896763225440848, 2.048606965615278
0.29000966698889963, 0.973942140132523
0.2903430114337145, -3.5410418157284633
0.2906763558785293, 3.4159573958452363
0.2910097003233441, 0.5802665038099544
0.291343044768159, -0.9499349419944743
0.2916763892129738, 1.4876219857698145
0.2920097336577886, 0.8022639731353474
0.29234307810260346, -0.6743969519166229
0.29267642254741827, -0.44644307230683133
0.2930097669922331, 1.2546823001126894
0.29334311143704794, -2.8011830476826107
0.29367645588186275, 1.3938163831362242
0.29400980032667756, -3.3053416670280136
0.2943431447714924, -5.212764613846569
0.29467648921630724, -1.926696490940963
0.29500983366112205, -7.590015848299794
0.2953431781059369, -6.581094252016311
0.2956765225507517, -2.796673908300681
0.29600986699556653, 3.8260281763376804
0.29634321144038134, 7.113781585446932
0.2966765558851962, 10.366948758745867
0.297009900330011, 14.114356323554698
0.2973432447748258, 10.080581992697576
0.2976765892196407, 5.204662310740735
0.2980099336644555, -1.0215127218485165
0.2983432781092703, -8.600474267251858
0.29867662255408517, -11.943399334755018
0.2990099669989, -13.283615204984677
0.2993433114437148, -15.694852567444089
0.29967665588852965, -15.834293621687616
0.30001000033334446, -14.28516332909819
0.30034334477815927, -16.254917842139374
0.30067668922297414, -20.721259557535515
0.30101003366778895, -17.562114632670998
0.30134337811260375, -3.010985968521659
0.3016767225574186, 31.21730102670143
0.30201006700223343, 71.82881591020472
0.30234341144704824, 73.05457012579889
0.3026767558918631, 31.76311737872716
0.3030101003366779, -5.073568268030584
0.3033434447814927, -11.264583463077736
0.3036767892263076, -11.184553380159306
0.3040101336711224, -9.324466627091457
0.3043434781159372, -3.2991224766901803
0.30467682256075207, -5.48232478971347
0.3050101670055669, -6.455733765007473
0.3053435114503817, -6.779676259174061
0.30567685589519655, -7.719262774051274
0.30601020034001136, -9.225186477686629
0.30634354478482617, -9.173500871814234
0.306676889229641, -10.804285846663007
0.30701023367445585, -11.897388033086312
0.30734357811927066, -9.502290293017582
0.30767692256408546, -10.934830443395441
0.30801026700890033, -8.328814264008681
0.30834361145371514, -5.272535311265878
0.30867695589852995, -2.3291556167943757
0.3090103003433448, -2.838808448428934
0.3093436447881596, -0.5734594208577102
0.30967698923297443, 5.472992180443708
0.3100103336777893, 6.873869832789029
0.3103436781226041, 8.76535267916973
0.3106770225674189, 7.990782376342562
0.3110103670122338, 7.099330020444281
0.3113437114570486, 4.822362109618309
0.3116770559018634, 3.4759387849733505
0.31201040034667826, -0.5187711307827376
0.31234374479149307, -1.1558467149988738
0.3126770892363079, 1.1217104519525414
0.31301043368112275, 2.132300090998301
0.31334377812593756, 3.896498861064523
0.31367712257075236, -0.710165928973153
0.31401046701556723, -0.08727465370933984
0.31434381146038204, 1.3206392177924036
0.31467715590519685, 1.2061678923535846
0.3150105003500117, 1.292315482128107
0.3153438447948265, 1.7435522469435518
0.31567718923964133, 2.3186152722568387
0.3160105336844562, 0.4486944722340729
0.316343878129271, -2.4750534682823213
0.3166772225740858, -6.761028312139365
0.3170105670189006, -4.9882163070964145
0.3173439114637155, -2.942438665490226
0.3176772559085303, -1.1711717555161518
0.3180106003533451, 5.8911883769520985
0.31834394479816, 12.966609129032793
0.3186772892429748, 13.77054653048026
0.3190106336877896, 10.36457267458842
0.31934397813260446, 1.7570291765287096
0.31967732257741927, -9.069569732610951
0.3200106670222341, -13.078581516778474
0.32034401146704894, -12.43520817350162
0.32067735591186375, -9.679330464958833
0.32101070035667856, -7.815630587070109
0.3213440448014934, -8.020713962394314
0.32167738924630823, -9.262099328467974
0.32201073369112304, -14.120676113377534
0.3223440781359379, -18.787467085127656
0.3226774225807527, -14.040291875628194
0.3230107670255675, 0.6307293861839298
0.3233441114703824, 34.1249665616714
0.3236774559151972, 69.03767937882475
0.324010800360012, 63.263257541156776
0.3243441448048269, 23.481407101870676
0.3246774892496417, -9.730671516328954
0.3250108336944565, -19.00720074853958
0.32534417813927136, -17.935658648443805
0.32567752258408617, -16.426979650594895
0.326010867028901, -16.392844188440357
0.3263442114737158, -15.80896376202326
0.32667755591853065, -13.104032112204482
0.32701090036334546, -12.209799376697978
0.32734424480816027, -9.038103812234686
0.32767758925297513, -2.699358182834861
0.32801093369778994, -4.142618962855651
0.32834427814260475, -4.345645447265052
0.3286776225874196, -1.3588541285250866
0.3290109670322344, -5.198771697455204
0.32934431147704923, -2.6378847438690802
0.3296776559218641, -1.2785211934113256
0.3300110003666789, -2.950903189652162
0.3303443448114937, 0.42729799371644495
0.3306776892563086, -0.28853672136480535
0.3310110337011234, 1.9537964146915145
0.3313443781459382, 4.345591304377482
0.33167772259075307, 6.348904972751921
0.3320110670355679, 10.937705525953112
0.3323444114803827, 9.668702705696301
0.33267775592519755, 9.463021844370717
0.33301110037001236, 6.973230715961983
0.33334444481482717, 7.890089561892209
0.33367778925964203, 11.314472189539442
0.33401113370445684, 6.195607141823641
0.33434447814927165, 4.717390458458225
0.3346778225940865, 5.382772844942383
0.3350111670389013, 5.1659170055741725
0.33534451148371613, 2.4895067272687816
0.335677855928531, 0.6057255550150149
0.3360112003733458, -1.4209481290307515
0.3363445448181606, -4.0349574634902705
0.3366778892629754, -4.283036959241005
0.3370112337077903, -8.81550724874365
0.3373445781526051, -11.054223553404825
0.3376779225974199, -10.757202555706815
0.3380112670422348, -11.730532334571238
0.3383446114870496, -12.832349877486743
0.3386779559318644, -8.34571387111375
0.33901130037667926, -3.9712518564178625
0.33934464482149407, -0.9554900299054303
0.3396779892663089, 4.917356806264902
0.34001133371112374, 3.3858524109215997
0.34034467815593855, 0.9215127958506457
0.34067802260075336, -1.35390532499421
0.3410113670455682, -7.892735101463864
0.34134471149038303, -11.175376014575383
0.34167805593519784, -8.489150656685936
0.3420114003800127, -7.049361944161154
0.3423447448248275, -7.861250335026838
0.3426780892696423, -1.9244873278165797
0.3430114337144572, -0.029648915922760644
0.343344778159272, -5.735715746090532
0.3436781226040868, -5.039540697574128
0.3440114670489017, 0.5875881155524694
0.3443448114937165, 20.043512410632523
0.3446781559385313, 55.11097930812352
0.34501150038334616, 76.14411316743364
0.34534484482816097, 55.87915657226457
0.3456781892729758, 14.194103062880616
0.34601153371779064, -11.10091546857242
0.34634487816260545, -21.85026087237441
0.34667822260742026, -22.869701808260047
0.34701156705223507, -20.99961576963458
0.34734491149704994, -21.51055229988191
0.34767825594186474, -18.23625776941608
0.34801160038667955, -14.130902332674872
0.3483449448314944, -12.5290081774241
0.34867828927630923, -9.83722192064163
0.34901163372112404, -4.849938113312501
0.3493449781659389, -3.7126044378430567
0.3496783226107537, -4.186813885397568
0.3500116670555685, -1.8021812766998178
0.3503450115003834, -1.548294263788133
0.3506783559451982, -4.10873865795378
0.351011700390013, -0.9607413282990755
0.35134504483482787, -1.5991057023173019
0.3516783892796427, -3.456730502138325
0.3520117337244575, -0.22027480549165235
0.35234507816927235, -3.057707537318687
0.35267842261408716, -1.9198813439498437
0.35301176705890197, 1.2411194794630416
0.35334511150371684, 1.339512140663023
0.35367845594853164, 3.473978163259664
0.35401180039334645, 3.579105727132391
0.3543451448381613, 3.694844450671876
0.35467848928297613, 6.811854790697326
0.35501183372779094, 7.9622716237621995
0.3553451781726058, 7.05236554954817
0.3556785226174206, 7.325170469766887
0.3560118670622354, 6.324827988207128
0.3563452115070503, 3.8123327223117833
0.3566785559518651, 1.6671155215391709
0.3570119003966799, -0.5720445527802696
0.3573452448414947, -2.871051408176822
0.3576785892863096, 1.1551750613235008
0.3580119337311244, 0.7628254509012513
0.3583452781759392, -4.03203537319826
0.35867862262075406, -1.3912269417681737
0.35901196706556887, -1.1519690654314247
0.3593453115103837, -1.3210293375824913
0.35967865595519855, -0.2021574423182373
0.36001200040001335, 1.9520847806853612
0.36034534484482816, 6.8410063565424775
0.36067868928964303, 11.38228351302034
0.36101203373445784, 8.0095831141887
0.36134537817927265, 4.918662730028065
0.3616787226240875, 5.3255736961700855
0.3620120670689023, -7.474393889072965
0.36234541151371713, -14.212945364859497
0.362678755958532, -15.807442006979707
0.3630121004033468, -18.63043152282514
0.3633454448481616, -17.074709450171596
0.3636787892929765, -17.95574035713191
0.3640121337377913, -13.275088770587526
0.3643454781826061, -16.201417423177116
0.36467882262742096, -20.426947236124164
0.36501216707223577, -12.358462151585485
0.3653455115170506, 7.43604790768407
0.36567885596186545, 49.589371534939076
0.36601220040668025, 84.28362309400937
0.36634554485149506, 60.64347949629048
0.3666788892963099, 8.108189533893595
0.36701223374112474, -13.225766216249655
0.36734557818593955, -17.065563743006383
0.36767892263075436, -13.080823506021595
0.3680122670755692, -11.187641885255827
0.36834561152038403, -15.99864308488378
0.36867895596519884, -12.208592642881847
0.3690123004100137, -11.036878609579656
0.3693456448548285, -10.11168119672276
0.3696789892996433, -9.204458583446744
0.3700123337444582, -6.930137879270643
0.370345678189273, -6.455224277579595
0.3706790226340878, -6.7385822450529025
0.37101236707890267, -3.7073790312798414
0.3713457115237175, -2.6242280499580994
0.3716790559685323, -0.8774362039582764
0.37201240041334716, 3.347147413209747
0.37234574485816196, 8.087685198603541
0.3726790893029768, 3.1548492776286183
0.37301243374779164, 3.1942613447841506
0.37334577819260645, 4.8262059273069156
0.37367912263742126, 3.407602306421095
0.3740124670822361, 8.417974742355039
0.37434581152705093, 6.67513986762722
0.37467915597186574, 5.988079452092473
0.3750125004166806, 4.950339446577633
0.3753458448614954, 1.5760682070132606
0.3756791893063102, 1.2021080534921529
0.3760125337511251, -1.7986632407070053
0.3763458781959399, -2.591025402122083
0.3766792226407547, -1.1272306236546703
0.3770125670855695, -1.4514234748320987
0.3773459115303844, 0.5986575405526
0.3776792559751992, 2.591296716086053
0.378012600420014, 0.3912338247241707
0.37834594486482886, 3.5007513262799166
0.3786792893096437, 5.264374312311551
0.3790126337544585, 0.2420139705562604
0.37934597819927335, -3.776352302856686
0.37967932264408816, -1.203058749226634
0.38001266708890297, -1.7484268418980375
0.38034601153371783, -9.819682448788221
0.38067935597853264, -4.702932175459399
0.38101270042334745, -3.5543364436817417
0.3813460448681623, -5.719727160774802
0.3816793893129771, -3.328731447376274
0.38201273375779193, -7.882820664810836
0.3823460782026068, -6.070670614384361
0.3826794226474216, -4.2475574442761195
0.3830127670922364, -0.7432999876146238
0.3833461115370513, 7.179258794941204
0.3836794559818661, 12.64553147237487
0.3840128004266809, 13.435456384023766
0.38434614487149577, 11.05574825948304
0.3846794893163106, 6.582031030360282
0.3850128337611254, -3.56180745951486
0.38534617820594025, -8.3224150924196
0.38567952265075506, -9.244504748090119
0.38601286709556987, -12.240065217979595
0.38634621154038473, -13.00758912421978
0.38667955598519954, -11.16030598492391
0.38701290043001435, -8.845303082857624
0.38734624487482916, -12.096408301211964
0.387679589319644, -16.739230412636317
0.38801293376445883, -8.076708611257958
0.38834627820927364, 12.329404771007072
0.3886796226540885, 51.86840694174177
0.3890129670989033, 81.3642998281349
0.3893463115437181, 51.72242365401257
0.389679655988533, 6.340405874829315
0.3900130004333478, -16.50730443448709
0.3903463448781626, -17.79543251213463
0.3906796893229775, -11.797401315557737
0.3910130337677923, -15.102978576244052
0.3913463782126071, -14.131734955835306
0.39167972265742196, -12.618638129438388
0.39201306710223677, -13.52205940881515
0.3923464115470516, -12.336915643245655
0.39267975599186644, -10.010946026854176
0.39301310043668125, -9.212579369004054
0.39334644488149606, -7.6558518092108505
0.3936797893263109, -7.179824173849904
0.39401313377112573, -7.502329952012647
0.39434647821594054, -5.179295083343032
0.3946798226607554, -4.556729700427092
0.3950131671055702, -3.1822735204271213
0.395346511550385, -1.769647993202832
0.3956798559951999, 4.799276061162611
0.3960132004400147, 4.959963986507642
0.3963465448848295, 4.72439159847683
0.3966798893296443, 7.757115341626529
0.3970132337744592, 3.5543914075460186
0.397346578219274, 5.728683971614039
0.3976799226640888, 7.28890681106052
0.39801326710890367, 4.92692858989803
0.3983466115537185, 1.9860016358095498
0.3986799559985333, 1.3370927407700641
0.39901330044334815, -1.2454736024017752
0.39934664488816296, -1.106243685529015
0.39967998933297777, -1.2782480200713509
0.40001333377779263, -1.4826036536561675
0.40034667822260744, 6.989534706368459
0.40068002266742225, 4.154574697557097
0.4010133671122371, 3.598559701183398
0.4013467115570519, 7.80115757504558
0.40168005600186674, 10.519554333616663
0.4020134004466816, 8.495413209517277
0.4023467448914964, 0.6754994067220044
0.4026800893363112, 2.287568849425697
0.4030134337811261, -1.0213081055918898
0.4033467782259409, -3.792251988026
0.4036801226707557, -0.640573387703735
0.40401346711557057, -2.7484699407986404
0.4043468115603854, -5.225968094999085
0.4046801560052002, -3.613815888948184
0.40501350045001505, -4.803342291845002
0.40534684489482986, -9.432317713209429
0.40568018933964467, -9.394124633894728
0.40601353378445953, -7.242134049723164
0.40634687822927434, -3.025584826680726
0.40668022267408915, 0.9347966131734244
0.40701356711890396, 5.267198177756732
0.4073469115637188, 9.092567403036492
0.40768025600853364, 8.448855854600701
0.40801360045334845, 6.232024204623828
0.4083469448981633, 1.4965404728649374
0.4086802893429781, -6.651608239426849
0.40901363378779293, -9.588693101626898
0.4093469782326078, -7.577850349908713
0.4096803226774226, -12.777368111536308
0.4100136671222374, -15.582296175715733
0.4103470115670523, -16.0178757182206
0.4106803560118671, -13.706853844388805
0.4110137004566819, -12.255175726009096
0.41134704490149676, -19.980394007098763
0.41168038934631157, -13.455485387368268
0.4120137337911264, 8.599236604433829
0.41234707823594124, 43.37767630687044
0.41268042268075605, 75.06796655604947
0.41301376712557086, 65.20665118997286
0.41334711157038573, 22.480118263435788
0.41368045601520054, -7.021750778435617
0.41401380046001535, -12.1150239513869
0.4143471449048302, -14.353927214525545
0.414680489349645, -14.693226412336383
0.41501383379445983, -11.812551399453472
0.4153471782392747, -11.264967702361828
0.4156805226840895, -11.390546538297468
0.4160138671289043, -7.871433185582697
0.4163472115737192, -7.057894737637466
0.416680556018534, -5.567936861273173
0.4170139004633488, -3.779018109383791
0.4173472449081636, -6.39949875060552
0.41768058935297847, -6.534987232402679
0.4180139337977933, -6.377065864694734
0.4183472782426081, -4.34041714151031
0.41868062268742295, -4.4661341454663495
0.41901396713223776, -2.244068434104097
0.4193473115770526, -0.596211444650617
0.41968065602186744, 1.6909091846459487
0.42001400046668225, 4.310310387164849
0.42034734491149706, 1.420205581438021
0.4206806893563119, 6.30229769270818
0.42101403380112673, 7.948780186504006
0.42134737824594154, 6.375877830392162
0.4216807226907564, 5.34069269731126
0.4220140671355712, 5.476575955033793
0.422347411580386, 4.701172750764903
0.4226807560252009, 3.5269729081287484
0.4230141004700157, 4.139614870527857
0.4233474449148305, -0.534539284126808
0.42368078935964537, 0.7317043363380682
0.4240141338044602, 0.2768014210638503
0.424347478249275, -0.5010620567138528
0.42468082269408985, -0.00042253556919513713
0.42501416713890466, -2.585291772161101
0.4253475115837195, -2.291422011666394
0.42568085602853434, -2.569029083358325
0.42601420047334915, -3.515689583238122
0.42634754491816396, -4.49063957845711
0.42668088936297877, -3.6139712348839774
0.42701423380779363, -5.357719306131692
0.42734757825260844, -5.561150478856076
0.42768092269742325, -4.142714930009983
0.4280142671422381, -2.3624059049043367
0.4283476115870529, 1.205559485732858
0.42868095603186773, 4.963105093795834
0.4290143004766826, 11.741773795481281
0.4293476449214974, 11.401448395181164
0.4296809893663122, 6.506006517428429
0.4300143338111271, 1.9559898921470262
0.4303476782559419, -4.48456218840998
0.4306810227007567, -8.35147935229622
0.43101436714557156, -11.234597261548277
0.4313477115903864, -11.486423584301814
0.4316810560352012, -11.766351231804792
0.43201440048001605, -14.407959967338543
0.43234774492483086, -12.116320648179991
0.43268108936964567, -11.074713868187601
0.43301443381446053, -14.33129033310809
0.43334777825927534, -12.452952190399497
0.43368112270409015, 4.539092232961686
0.434014467148905, 38.47224017527327
0.4343478115937198, 68.45209531727222
0.43468115603853463, 64.68647028862758
0.4350145004833495, 28.37992921422993
0.4353478449281643, -3.8590768489084013
0.4356811893729791, -15.6873855831812
0.436014533817794, -15.244412059525994
0.4363478782626088, -13.74595966372667
0.4366812227074236, -13.568877320049019
0.4370145671522384, -9.787320209926563
0.4373479115970533, -8.934761649827907
0.4376812560418681, -8.807747707956649
0.4380146004866829, -8.433171335609117
0.43834794493149776, -9.812649797249165
0.43868128937631257, -6.135840320170669
0.4390146338211274, -4.816244385984774
0.43934797826594224, -7.090642029814282
0.43968132271075705, -5.841027522525029
0.44001466715557186, -5.317352520622783
0.4403480116003867, -3.9187911286731083
0.44068135604520153, -2.8049945895686665
0.44101470049001634, -3.0900336872459633
0.4413480449348312, 1.4857670389439273
0.441681389379646, 0.6003062219539181
0.4420147338244608, -3.3845495497043476
0.4423480782692757, 4.10929907557936
0.4426814227140905, 6.655416318650234
0.4430147671589053, 6.405184744622208
0.4433481116037202, 7.672290492292594
0.443681456048535, 4.482116350334285
0.4440148004933498, 4.707232509526763
0.44434814493816466, 3.3759309636351857
0.44468148938297947, 3.760496075403531
0.4450148338277943, 0.16740528969016655
0.44534817827260914, -1.204959471129726
0.44568152271742395, 1.9635082423713426
0.44601486716223876, 0.7622198950080774
0.4463482116070536, 0.8615242884267431
0.44668155605186843, 0.6377453878252135
0.44701490049668324, 0.9129338121930144
0.44734824494149805, -0.5510837873163441
0.4476815893863129, -0.8948664019097796
0.4480149338311277, -5.721628773383143
0.44834827827594254, -4.629214002634823
0.4486816227207574, -3.759988049921056
0.4490149671655722, -4.376772600142941
0.449348311610387, 5.434832263829939
0.4496816560552019, 3.8034403995881454
0.4500150005000167, 5.907393815982227
0.4503483449448315, 10.913594625691285
0.45068168938964637, 9.627905245258095
0.4510150338344612, 6.017522463115132
0.451348378279276, 0.5094391947993566
0.45168172272409085, -1.7893315709619704
0.45201506716890566, -6.553161044260133
0.45234841161372047, -11.420289718602984
0.45268175605853533, -15.64508284125867
0.45301510050335014, -14.827946301588593
0.45334844494816495, -14.809993294649344
0.4536817893929798, -14.014566871179904
0.4540151338377946, -13.049917379195163
0.45434847828260944, -18.02314829928065
0.4546818227274243, -13.340840910103816
0.4550151671722391, 0.08109946849935845
0.4553485116170539, 29.34841238264667
0.4556818560618688, 70.22678363402603
0.4560152005066836, 71.04356259996355
0.4563485449514984, 30.34604587171005
0.45668188939631327, -2.242413236706291
0.4570152338411281, -14.61744224012785
0.4573485782859429, -17.514977736803885
0.4576819227307577, -15.701272631717826
0.45801526717557256, -13.79948573490811
0.45834861162038737, -13.922327178577468
0.4586819560652022, -10.135055969315069
0.45901530051001704, -8.281842714953687
0.45934864495483185, -9.561816609661077
0.45968198939964666, -8.775919975223378
0.4600153338444615, -10.105261784126913
0.46034867828927634, -9.40688864570519
0.46068202273409115, -7.764860772941778
0.461015367178906, -5.187831471241473
0.4613487116237208, -5.514647662761454
0.46168205606853563, -4.135074026707887
0.4620154005133505, 0.6825705033862981
0.4623487449581653, 1.748727464602175
0.4626820894029801, 4.854346655328607
0.463015433847795, 4.490915319228108
0.4633487782926098, 6.00333533326987
0.4636821227374246, 10.152965502219377
0.46401546718223946, 10.107279276755321
0.46434881162705427, 8.817948232306563
0.4646821560718691, 8.133721751420472
0.46501550051668394, 6.567565984155032
0.46534884496149875, 2.060216257100339
0.46568218940631356, 0.4598077101543563
0.4660155338511284, -0.11009580499504246
0.46634887829594324, -2.4840218734178783
0.46668222274075805, -4.343924897518482
0.46701556718557286, -0.27871155984167206
0.4673489116303877, 0.413914507928713
0.46768225607520253, 1.0383674423652551
0.46801560052001734, 6.22249726924743
0.4683489449648322, 1.4277131876152658
0.468682289409647, 1.125833988391585
0.4690156338544618, -0.13654815943666554
0.4693489782992767, -4.854649446647008
0.4696823227440915, -2.6661234307195505
0.4700156671889063, -3.71148010010901
0.47034901163372117, -4.170309354731819
0.470682356078536, -5.437136450413236
0.4710157005233508, -2.6648652292482904
0.47134904496816565, -1.020146242502336
0.47168238941298046, -4.167014816186664
0.47201573385779527, -4.455429789874318
0.47234907830261014, -4.680229077915232
0.47268242274742495, 1.2411424539886338
0.47301576719223976, 2.817039847823649
0.4733491116370546, 7.029123405953654
0.47368245608186943, 14.365879768860648
0.47401580052668424, 10.858316311518848
0.4743491449714991, 6.004634289306775
0.4746824894163139, 0.694403674788445
0.4750158338611287, -4.256173760507225
0.4753491783059436, -8.461652701984617
0.4756825227507584, -10.445384939372797
0.4760158671955732, -13.572864029078875
0.47634921164038807, -13.622303207857554
0.4766825560852029, -12.58560759752515
0.4770159005300177, -10.850548298762833
0.4773492449748325, -13.46218177798406
0.47768258941964736, -21.165137042285043
0.4780159338644622, -8.212469032830786
0.478349278309277, 12.450211233650307
0.47868262275409185, 52.094275654626685
0.47901596719890666, 84.05829409181527
0.47934931164372147, 53.349554044619566
0.47968265608853633, 5.734823710731998
0.48001600053335114, -15.552989173206763
0.48034934497816595, -18.47192923510319
0.4806826894229808, -19.68194295512771
0.4810160338677956, -16.563260251707415
0.48134937831261043, -14.05530782818667
0.4816827227574253, -13.587226574676482
0.4820160672022401, -9.649091136634299
0.4823494116470549, -10.618757899343807
0.4826827560918698, -9.416788208756756
0.4830161005366846, -7.735932323118173
0.4833494449814994, -7.306983048112415
0.48368278942631426, -5.004049651353162
0.4840161338711291, -4.272067553463477
0.4843494783159439, -2.4695897880262425
0.48468282276075875, -2.271247794694208
0.48501616720557356, 1.8421983532755544
0.48534951165038837, 6.725350704235668
0.48568285609520323, 4.931239641562485
0.48601620054001804, 7.730132358651421
0.48634954498483285, 7.825789669149641
0.4866828894296477, 4.735023760624614
0.4870162338744625, 6.578090569741915
0.48734957831927733, 6.717720557917437
0.48768292276409214, 6.2510366740361825
0.488016267208907, 5.654510192721567
0.4883496116537218, 1.9024402299936272
0.4886829560985366, -1.4678353647546531
0.4890163005433515, -3.4265205213010286
0.4893496449881663, -5.645149190947932
0.4896829894329811, -5.716753770969136
0.490016333877796, -5.854736135213125
0.4903496783226108, -2.9699789155749112
0.4906830227674256, 0.9390671347940183
0.49101636721224046, 0.7997254335559265
0.49134971165705527, 0.7733196245150697
0.4916830561018701, 1.5787647125634057
0.49201640054668494, 3.673576968928872
0.49234974499149975, 3.3652035760778864
0.49268308943631456, 0.6457065367425188
0.4930164338811294, 0.1733824246214175
0.49334977832594423, 0.6752621680079558
0.49368312277075904, 0.03127288391920491
0.4940164672155739, 0.7333724869452598
0.4943498116603887, 0.9725524375280874
0.4946831561052035, -1.2131430206198308
0.4950165005500184, -3.9744527798905542
0.4953498449948332, -4.189651984028852
0.495683189439648, -3.798461567352708
0.4960165338844629, -5.202842828610223
0.4963498783292777, -3.5135923258702517
0.4966832227740925, -5.235794300790963
0.4970165672189073, -5.159574665058207
0.49734991166372217, 0.7468094051725425
0.497683256108537, 3.2086643954429355
0.4980166005533518, 6.783726639924704
0.49834994499816665, 13.538338658369195
0.49868328944298146, 13.899112442168812
0.49901663388779627, 9.795255431733775
0.49934997833261113, 6.088909442087747
0.49968332277742594, -1.026583274496689
0.5000166672222408, -3.6835481254502214
0.5003500116670556, -7.906350853986936
0.5006833561118704, -12.478836527082128
0.5010167005566852, -12.81162991363837
0.5013500450015, -13.359525835866096
0.501683389446315, -11.723475099872955
0.5020167338911298, -13.364035387265705
0.5023500783359446, -15.658652052744348
0.5026834227807594, -14.490546296366475
0.5030167672255742, 0.3241271882069512
0.503350111670389, 30.299176453630228
0.5036834561152038, 67.13952486717832
0.5040168005600187, 69.05561600039074
0.5043501450048335, 23.708392023323842
0.5046834894496484, -11.193735364573618
0.5050168338944632, -21.005722944901592
0.505350178339278, -18.47252703966995
0.5056835227840928, -15.976318007193537
0.5060168672289077, -13.858594708743125
0.5063502116737225, -14.12235103400732
0.5066835561185373, -15.458445736382934
0.5070169005633521, -11.34064926262464
0.507350245008167, -9.365584068123347
0.5076835894529818, -8.546262754588366
0.5080169338977967, -8.621436484264716
0.5083502783426115, -5.702827265191257
0.5086836227874263, -6.195337606472886
0.5090169672322411, -5.830496654373708
0.5093503116770559, -3.9914460263299762
0.5096836561218707, 0.010989676989418662
0.5100170005666856, 6.120673426950992
0.5103503450115005, 4.755732772314084
0.5106836894563153, 6.265334926978301
0.5110170339011301, 7.365184054418956
0.5113503783459449, 7.528115963931139
0.5116837227907597, 8.845698982785363
0.5120170672355746, 9.943860208014016
0.5123504116803894, 9.244287389456389
0.5126837561252042, 7.505444452138754
0.513017100570019, 4.628365820119428
0.5133504450148338, 1.1844502694679582
0.5136837894596487, 2.0606664062751765
0.5140171339044635, -2.047701464000192
0.5143504783492784, -1.419194059024143
0.5146838227940932, 2.7915269820413475
0.515017167238908, -0.7984919493738243
0.5153505116837228, -1.3068415838377785
0.5156838561285376, 1.918219026453638
0.5160172005733524, 1.6463212930953104
0.5163505450181674, 0.7223341897550668
0.5166838894629822, 2.6303450056586577
0.517017233907797, 0.6091869964278513
0.5173505783526118, 1.6150319147637204
0.5176839227974266, 2.577492772658232
0.5180172672422414, -3.4302109101567124
0.5183506116870563, -3.3785590178468885
0.5186839561318711, -2.522612334596159
0.5190173005766859, -7.277994378850914
0.5193506450215007, -9.656294279851636
0.5196839894663156, -6.15464905498984
0.5200173339111304, -4.802309713710626
0.5203506783559453, -6.049820235128739
0.5206840228007601, -4.917366058694295
0.5210173672455749, -4.999484700894501
0.5213507116903897, -4.956885991981014
0.5216840561352045, -1.0209612230678227
0.5220174005800193, 2.1124048979185392
0.5223507450248341, 3.896563731544161
0.5226840894696491, 10.3041522549097
0.5230174339144639, 11.794802188858139
0.5233507783592787, 7.610758331202691
0.5236841228040935, 4.740747214919078
0.5240174672489083, -0.9904927072770109
0.5243508116937231, -6.18644042755543
0.524684156138538, -8.526293902593697
0.5250175005833528, -12.911415839024315
0.5253508450281676, -13.016011241476617
0.5256841894729825, -9.377360830617377
0.5260175339177973, -12.462799819981182
0.5263508783626121, -13.557523634753323
0.526684222807427, -8.849012947893659
0.5270175672522418, -6.460747622909721
0.5273509116970566, -0.13869072945632155
0.5276842561418714, 26.871381571868085
0.5280176005866862, 62.712783334081394
0.528350945031501, 70.37448846873097
0.528684289476316, 38.745233170433806
0.5290176339211308, -0.025097580407784648
0.5293509783659456, -15.019048781497053
0.5296843228107604, -16.39756984561761
0.5300176672555752, -15.582789609136809
0.53035101170039, -14.801747284709386
0.5306843561452049, -14.97307563090494
0.5310177005900197, -14.283540339509152
0.5313510450348345, -13.23429699054986
0.5316843894796494, -5.877248007605527
0.5320177339244642, -3.420993688051582
0.532351078369279, -8.604109159767749
0.5326844228140938, -6.595556528554169
0.5330177672589087, -4.467077523327264
0.5333511117037235, -7.828890287843278
0.5336844561485383, -8.447316121566516
0.5340178005933531, -4.197682997561225
0.5343511450381679, -3.5082234617577095
0.5346844894829827, -0.7749249356426118
0.5350178339277977, 4.392449237922712
0.5353511783726125, 3.3845722405524548
0.5356845228174273, 4.286396760085692
0.5360178672622421, 7.258171670552041
0.5363512117070569, 9.181837338498063
0.5366845561518717, 7.861480315575759
0.5370179005966866, 5.060714404677626
0.5373512450415014, 4.242778772848597
0.5376845894863163, 3.886728924908105
0.5380179339311311, 2.468732059338524
0.5383512783759459, 0.6194726242433175
0.5386846228207607, -0.39259287919547603
0.5390179672655756, -1.7711920102563226
0.5393513117103904, -1.2858443571138989
0.5396846561552052, -0.29528495132008725
0.54001800060002, 0.824357780966448
0.5403513450448348, 0.05957939027550374
0.5406846894896497, -0.045308315779593045
0.5410180339344646, 1.3227819973501938
0.5413513783792794, -0.8889408244741679
0.5416847228240942, -0.46878795459038636
0.542018067268909, -0.702126310978116
0.5423514117137238, -3.278491475974924
0.5426847561585386, -2.476638211991458
0.5430181006033534, -4.072727587826469
0.5433514450481683, -5.199713879148009
0.5436847894929832, -1.8208722130073305
0.544018133937798, -0.8546016443767626
0.5443514783826128, 2.5046778533008442
0.5446848228274276, 9.57879692046513
0.5450181672722424, 9.92888659959965
0.5453515117170573, 6.121918918073347
0.5456848561618721, 2.475489445420213
0.5460182006066869, -4.205141101637546
0.5463515450515017, -8.832201781084587
0.5466848894963166, -9.38543292535011
0.5470182339411314, -11.971930837857707
0.5473515783859463, -13.405951083746503
0.5476849228307611, -13.92472128812327
0.5480182672755759, -13.256875607316408
0.5483516117203907, -11.679407308872957
0.5486849561652055, -14.929265608618806
0.5490183006100203, -13.23762139399342
0.5493516450548352, -2.4146910312754564
0.5496849894996501, 23.38562200441601
0.5500183339444649, 61.28948422258455
0.5503516783892797, 74.1676356722833
0.5506850228340945, 45.17140478263221
0.5510183672789093, 4.085364052225252
0.5513517117237242, -13.800392071604996
0.551685056168539, -13.881697338260773
0.5520184006133538, -13.674221762786672
0.5523517450581686, -12.754286783202708
0.5526850895029835, -12.505968826804331
0.5530184339477983, -12.558857150418195
0.5533517783926131, -10.348007006954917
0.553685122837428, -9.331537172064369
0.5540184672822428, -9.2406383486313
0.5543518117270576, -8.118574720793626
0.5546851561718724, -8.207668747698616
0.5550185006166872, -5.973115939189183
0.555351845061502, -5.257138698321719
0.555685189506317, -5.94764266227151
0.5560185339511318, -4.388032170876399
0.5563518783959466, -3.082904344187673
0.5566852228407614, 1.39988764796178
0.5570185672855762, 2.6015039184315496
0.557351911730391, 3.099790151740456
0.5576852561752059, 6.108632752376545
0.5580186006200207, 5.699598057923524
0.5583519450648355, 6.45694309828174
0.5586852895096504, 7.189344701404986
0.5590186339544652, 5.67026959600876
0.55935197839928, 4.567442446157376
0.5596853228440949, 2.7711703932090055
0.5600186672889097, -0.1577159143427984
0.5603520117337245, -1.2209235886625072
0.5606853561785393, -0.970152769470392
0.5610187006233541, -0.2879601877436504
0.5613520450681689, -0.8513738619360924
0.5616853895129839, -1.4089643563064302
0.5620187339577987, 0.21312272269722787
0.5623520784026135, 0.44497820605788996
0.5626854228474283, 0.22853349936571554
0.5630187672922431, 0.3130806082517521
0.5633521117370579, 1.190088112431359
0.5636854561818727, 0.2415627092663296
0.5640188006266876, -1.9112531453334745
0.5643521450715024, -0.7254644229416563
0.5646854895163173, -1.0783403809003036
0.5650188339611321, -5.558031392908522
0.5653521784059469, -5.29639426571959
0.5656855228507617, -3.251416843669026
0.5660188672955766, -2.524161492955285
0.5663522117403914, 2.1669599771581183
0.5666855561852062, 3.308698092258204
0.567018900630021, 8.639440960010978
0.5673522450748358, 14.2925635958502
0.5676855895196506, 10.093935698314997
0.5680189339644656, 2.5144842356133035
0.5683522784092804, -1.528007860955563
0.5686856228540952, -3.9727492698020184
0.56901896729891, -9.241925353577685
0.5693523117437248, -11.17566714430079
0.5696856561885396, -14.003794621800797
0.5700190006333545, -14.166776997712335
0.5703523450781693, -14.716454707517327
0.5706856895229842, -12.065608392340993
0.571019033967799, -16.26220647562758
0.5713523784126138, -17.996397674136194
0.5716857228574286, 0.44717581491457636
0.5720190673022435, 21.96194094848731
0.5723524117470583, 63.42569381851084
0.5726857561918731, 76.80656749115127
0.5730191006366879, 37.60158027022946
0.5733524450815027, -0.3994454978809223
0.5736857895263175, -17.151118230960485
0.5740191339711324, -17.571666150000624
0.5743524784159473, -16.959067038434892
0.5746858228607621, -13.652747606673126
0.5750191673055769, -12.906128711914278
0.5753525117503917, -12.638860997369925
0.5756858561952065, -11.0171820159164
0.5760192006400213, -10.576968536651522
0.5763525450848362, -10.26905768606868
0.576685889529651, -9.54041511699204
0.5770192339744659, -7.6172834634054825
0.5773525784192807, -8.597697489273134
0.5776859228640955, -4.023305943569931
0.5780192673089103, -3.7895891830844937
0.5783526117537252, -4.4693003276170025
0.57868595619854, 0.875906954122045
0.5790193006433548, 1.0440214515601074
0.5793526450881696, 3.412430672877832
0.5796859895329844, 7.509396516116917
0.5800193339777993, 8.83977425740201
0.5803526784226142, 9.922471055473684
0.580686022867429, 11.174680729343356
0.5810193673122438, 10.283115752918217
0.5813527117570586, 8.429451744554228
0.5816860562018734, 6.591153228950594
0.5820194006466882, 3.6145816623306413
0.582352745091503, 1.8412011880152903
0.582686089536318, -1.2588090851903484
0.5830194339811328, -1.9791382802242738
0.5833527784259476, -1.18031631857661
0.5836861228707624, -1.8851739671979704
0.5840194673155772, -2.146161201244322
0.584352811760392, -1.8868367048910626
0.5846861562052069, 0.8343263687554956
0.5850195006500217, -0.9822881854248993
0.5853528450948365, -0.26185771669118274
0.5856861895396513, 3.840568494511249
0.5860195339844662, 0.5373891657921968
0.586352878429281, -2.405622368033436
0.5866862228740959, -0.7864646646582932
0.5870195673189107, -0.7187484758287094
0.5873529117637255, -4.231614532433809
0.5876862562085403, -3.1115436293656074
0.5880196006533551, -3.7746563725745412
0.5883529450981699, -6.605699798391105
0.5886862895429849, -5.3798709934164926
0.5890196339877997, -6.217920846928667
0.5893529784326145, -7.014291073351679
0.5896863228774293, -6.945396612664377
0.5900196673222441, -3.6595288813532867
0.5903530117670589, -0.7596816278792184
0.5906863562118738, 2.686652033067274
0.5910197006566886, 7.387531809484119
0.5913530451015034, 10.018679225428944
0.5916863895463182, 15.551041365653802
0.5920197339911331, 14.334501288686667
0.5923530784359479, 8.77996451399391
0.5926864228807627, 4.641556077250506
0.5930197673255776, -3.886718341207982
0.5933531117703924, -10.045143424116937
0.5936864562152072, -11.418548649365444
0.594019800660022, -11.707543273924173
0.5943531451048368, -12.792593135783852
0.5946864895496516, -12.325843683914043
0.5950198339944666, -10.996505877453538
0.5953531784392814, -13.876058301950296
0.5956865228840962, -16.03381838015015
0.596019867328911, -10.326965901022422
0.5963532117737258, 7.07215154107166
0.5966865562185406, 45.36052927621511
0.5970199006633555, 80.27843492911404
0.5973532451081703, 59.22984445215823
0.5976865895529851, 10.528955162353126
0.5980199339978, -13.681372432927622
0.5983532784426148, -19.230118346567224
0.5986866228874296, -17.357726862802508
0.5990199673322445, -16.030525468681624
0.5993533117770593, -15.820153598964401
0.5996866562218741, -14.869263924388573
0.6000200006666889, -13.127411087871419
0.6003533451115037, -11.710107099933587
0.6006866895563185, -10.36376420973526
0.6010200340011335, -9.497321982562285
0.6013533784459483, -9.618105548829218
0.6016867228907631, -9.175963526658897
0.6020200673355779, -6.961193447978228
0.6023534117803927, -2.7122920864259186
0.6026867562252075, -2.4278131916519987
0.6030201006700223, -0.10772142618800018
0.6033534451148372, 3.9902497940884083
0.603686789559652, 5.598561380556423
0.6040201340044669, 10.338082167148368
0.6043534784492817, 12.338430135461135
0.6046868228940965, 9.681531492829642
0.6050201673389113, 12.030793694456182
0.6053535117837262, 11.086351731009088
0.605686856228541, 8.601175301519833
0.6060202006733558, 9.595436375744935
0.6063535451181706, 4.0028012870420815
0.6066868895629854, 0.20821870278077537
0.6070202340078003, -1.7672708289407177
0.6073535784526152, -5.128853939370206
0.60768692289743, -4.6659878546541425
0.6080202673422448, -2.514278048920626
0.6083536117870596, -2.6185322748725763
0.6086869562318744, -2.0679623974229346
0.6090203006766892, -3.5442934777614283
0.6093536451215041, -0.8983491367302179
0.609686989566319, 1.611348627215066
0.6100203340111338, -0.06694209978954979
0.6103536784559486, 2.847484283329958
0.6106870229007634, -2.561550949651459
0.6110203673455782, -1.9055060056662918
0.6113537117903931, -2.294330349671105
0.6116870562352079, -1.7685007360889586
0.6120204006800227, 2.866626880335439
0.6123537451248375, -4.866698669925245
0.6126870895696523, -3.9551884130593216
0.6130204340144672, -4.276851997199547
0.613353778459282, -4.687922036790784
0.6136871229040969, -3.99918702495351
0.6140204673489117, -6.321524440231041
0.6143538117937265, -4.96619643669917
0.6146871562385413, -6.886227974221913
0.6150205006833561, -6.075217692808691
0.6153538451281709, -2.4196753532709145
0.6156871895729858, 1.7776587461244535
0.6160205340178007, 6.057616228776136
0.6163538784626155, 12.676862288333762
0.6166872229074303, 15.550520299246855
0.6170205673522451, 13.682413173276725
0.6173539117970599, 11.083431957121228
0.6176872562418748, 2.8358656157825184
0.6180206006866896, -1.312194099945292
0.6183539451315044, -3.8314788182448245
0.6186872895763192, -10.607902541707693
0.619020634021134, -13.295295239795525
0.6193539784659489, -12.78181826307375
0.6196873229107638, -11.539865796223651
0.6200206673555786, -12.819177191366776
0.6203540118003934, -16.55962865068899
0.6206873562452082, -16.714158366802913
0.621020700690023, -11.358411706872486
0.6213540451348378, 7.527398770871288
0.6216873895796527, 47.05165895846886
0.6220207340244676, 79.88729910006961
0.6223540784692824, 61.649473846691706
0.6226874229140972, 12.338015397004694
0.623020767358912, -13.597850575392295
0.6233541118037268, -16.150884511161088
0.6236874562485416, -14.737924363679191
0.6240208006933565, -12.606305321886047
0.6243541451381713, -12.832018442862886
0.6246874895829861, -15.049262001013613
0.625020834027801, -13.948361453531042
0.6253541784726158, -12.496769109489488
0.6256875229174306, -11.15198562282221
0.6260208673622455, -9.966430230687415
0.6263542118070603, -9.49354610084237
0.6266875562518751, -6.481898805940129
0.6270209006966899, -8.000759954590304
0.6273542451415047, -8.07498732661145
0.6276875895863195, -4.677657111973144
0.6280209340311345, -3.780454613803653
0.6283542784759493, -0.5132051923286767
0.6286876229207641, 3.3746393965052377
0.6290209673655789, 5.506200953403992
0.6293543118103937, 6.37971614217964
0.6296876562552085, 8.388342099121555
0.6300210007000234, 8.241750424200179
0.6303543451448382, 9.134744431630114
0.630687689589653, 10.978140298985657
0.6310210340344679, 7.746847575688375
0.6313543784792827, 6.605545621321335
0.6316877229240975, 4.233290515645014
0.6320210673689124, 0.13187020430269847
0.6323544118137272, -1.3884119493025588
0.632687756258542, -1.4432595853087022
0.6330211007033568, -2.0978755481005162
0.6333544451481716, -1.1209308706322805
0.6336877895929864, 2.1189629109850907
0.6340211340378012, -0.8947467805955747
0.6343544784826162, -0.7355751027425819
0.634687822927431, 1.2513161204178334
0.6350211673722458, -1.6675219618909436
0.6353545118170606, -1.6637259876243076
0.6356878562618754, -0.6801608642359369
0.6360212007066902, -0.6285228155191843
0.6363545451515051, -1.7632477682035093
0.63668788959632, -1.6451696517249814
0.6370212340411348, -3.890545991406748
0.6373545784859496, -4.725140203898398
0.6376879229307644, -4.027345615010194
0.6380212673755792, -5.877328318139494
0.6383546118203941, -1.1430422558547788
0.6386879562652089, 0.9041084618102673
0.6390213007100237, 2.780555962046504
0.6393546451548385, 7.64265956707798
0.6396879895996533, 9.752340993305122
0.6400213340444681, 9.370501271060247
0.6403546784892831, 3.783335465332397
0.6406880229340979, 1.116110701841567
0.6410213673789127, -6.105279193692765
0.6413547118237275, -12.099423982044476
0.6416880562685423, -10.887068189430085
0.6420214007133571, -12.252857928982966
0.642354745158172, -12.546500755700045
0.6426880896029868, -12.30391419171121
0.6430214340478017, -11.093895211396948
0.6433547784926165, -15.18940168038137
0.6436881229374313, -15.566002179823014
0.6440214673822461, -11.835466469391825
0.6443548118270609, 3.9916894994578236
0.6446881562718758, 44.81475092105462
0.6450215007166906, 71.55244860558079
0.6453548451615054, 60.77257507610814
0.6456881896063202, 25.128389488464173
0.646021534051135, -3.0076740591617437
0.6463548784959499, -14.230470941511703
0.6466882229407648, -16.615572764551768
0.6470215673855796, -14.457641548627837
0.6473549118303944, -15.154354430056078
0.6476882562752092, -12.499671118197211
0.648021600720024, -11.709100350685366
0.6483549451648388, -11.338420872291149
0.6486882896096537, -7.327461550127944
0.6490216340544686, -5.996814679071544
0.6493549784992834, -8.01790837198682
0.6496883229440982, -6.529011740525173
0.650021667388913, -4.761360512731352
0.6503550118337278, -6.001990038966278
0.6506883562785427, -4.528897548949226
0.6510217007233575, -4.476233105310843
0.6513550451681723, -2.2980399438567245
0.6516883896129871, 1.007084086141825
0.652021734057802, 2.939092594778631
0.6523550785026168, 4.427949359330828
0.6526884229474316, 5.177325376106909
0.6530217673922465, 8.780875152109736
0.6533551118370613, 8.404533163128551
0.6536884562818761, 7.067108751683463
0.6540218007266909, 6.605528339189519
0.6543551451715057, 4.291128675630741
0.6546884896163205, 5.761866169813251
0.6550218340611355, 3.4600652296850627
0.6553551785059503, 0.8523566833013652
0.6556885229507651, 1.5800506173039066
0.6560218673955799, 0.8596446722330415
0.6563552118403947, -0.3527798445263719
0.6566885562852095, -1.2190533379541746
0.6570219007300244, 0.6392405697166179
0.6573552451748392, -1.3656756856037886
0.657688589619654, 0.5163849632607713
0.6580219340644688, -0.5473251265515251
0.6583552785092837, -6.763434912726611
0.6586886229540985, -2.7347636341764376
0.6590219673989134, -2.221132277481496
0.6593553118437282, -4.923011266934723
0.659688656288543, -5.838673357559015
0.6600220007333578, -6.139575507356348
0.6603553451781726, -4.558630680100771
0.6606886896229874, -1.4348185918520953
0.6610220340678024, 2.6997898008487304
0.6613553785126172, 8.139397059570936
0.661688722957432, 12.017103542200978
0.6620220674022468, 8.553206067555962
0.6623554118470616, 4.451345884371954
0.6626887562918764, -0.1837750385856567
0.6630221007366912, -5.975541388917717
0.6633554451815061, -10.016676980267375
0.6636887896263209, -12.279071687119682
0.6640221340711358, -12.852410346387362
0.6643554785159506, -14.502805922458798
0.6646888229607654, -14.57616501436896
0.6650221674055802, -11.702248377582684
0.6653555118503951, -15.073635077273718
0.6656888562952099, -14.924639858546973
0.6660222007400247, -7.257094829665375
0.6663555451848395, 8.81379128701342
0.6666888896296543, 45.908215903453424
0.6670222340744691, 74.54726174812627
0.6673555785192841, 61.3871186858896
0.6676889229640989, 21.365675733134342
0.6680222674089137, -5.922086013419406
0.6683556118537285, -14.601540320000776
0.6686889562985433, -13.16048182844214
0.6690223007433581, -16.221665616128366
0.669355645188173, -20.46269548650387
0.6696889896329878, -13.406577296063993
0.6700223340778027, -8.905103839343536
0.6703556785226175, -9.15603167795319
0.6706890229674323, -10.46849109594958
0.6710223674122471, -4.575584234316828
0.671355711857062, -8.035116523356043
0.6716890563018768, -4.8545633371755
0.6720224007466916, -5.428634180928835
0.6723557451915064, -17.205118293640954
0.6726890896363212, -4.485686543542716
0.673022434081136, -0.7854660495617072
0.6733557785259509, -3.125612464359259
0.6736891229707658, 0.35308261600397994
0.6740224674155806, 6.619712190376849
0.6743558118603954, 10.268049614584262
0.6746891563052102, 8.626934070344904
0.675022500750025, 13.083965987494288
0.6753558451948398, 10.732096504057473
0.6756891896396547, 8.936425526895006
0.6760225340844696, 7.780770712223437
0.6763558785292844, 3.929319090953089
0.6766892229740992, 1.6578935155869017
0.677022567418914, -0.8838829205198655
0.6773559118637288, -1.7042602406123315
0.6776892563085437, -2.500203856901168
0.6780226007533585, -1.3303619279572416
0.6783559451981733, 1.0409143304552888
0.6786892896429881, -0.20978887480036135
0.679022634087803, -2.3322498924887447
0.6793559785326178, -0.3049709845100297
0.6796893229774327, 1.28763146856077
0.6800226674222475, -2.5610589473763854
0.6803560118670623, -3.1996669608350166
0.6806893563118771, -1.917996928110175
0.6810227007566919, -2.8861230923563457
0.6813560452015067, -3.3248009893854173
0.6816893896463216, -5.8390879615952525
0.6820227340911365, -6.752671659790035
0.6823560785359513, -7.08959933734683
0.6826894229807661, -7.201080018196231
0.6830227674255809, -5.630684266029811
0.6833561118703957, -0.693741206843268
0.6836894563152105, 6.574146340742988
0.6840228007600254, 9.732868821537172
0.6843561452048402, 14.577130316365054
0.684689489649655, 17.04256321850619
0.6850228340944698, 8.433120192607111
0.6853561785392847, 1.2097077559389477
0.6856895229840995, -4.810583325821144
0.6860228674289144, -9.773278955033827
0.6863562118737292, -8.122368359844621
0.686689556318544, -12.891038460212082
0.6870229007633588, -14.490005925974138
0.6873562452081736, -12.10817145437178
0.6876895896529884, -12.913731982414147
0.6880229340978034, -14.384100914365975
0.6883562785426182, -17.38945844722391
0.688689622987433, -7.6928844229980955
0.6890229674322478, 16.10580671233637
0.6893563118770626, 59.96670689779342
0.6896896563218774, 83.61340099508406
0.6900230007666923, 41.579225045540866
0.6903563452115071, -5.823076244517235
0.6906896896563219, -16.868674522915107
0.6910230341011367, -17.175276613072874
0.6913563785459516, -18.374587767137903
0.6916897229907664, -15.436252303477497
0.6920230674355813, -13.918063999405174
0.6923564118803961, -14.616337789531368
0.6926897563252109, -11.464756709284046
0.6930231007700257, -11.735392047053173
0.6933564452148405, -10.97208486414915
0.6936897896596553, -5.815753014009999
0.6940231341044701, -7.394067908110497
0.6943564785492851, -7.877228745326047
0.6946898229940999, -4.686578028680824
0.6950231674389147, -2.9313845895625263
0.6953565118837295, -0.8161885860376561
0.6956898563285443, 2.0263686646467747
0.6960232007733591, 6.229246852148921
0.696356545218174, 8.022207528217706
0.6966898896629888, 10.435276530137855
0.6970232341078036, 9.100408642052537
0.6973565785526185, 8.7661744575246
0.6976899229974333, 13.309018239341837
0.6980232674422481, 10.179937983822157
0.698356611887063, 5.679985632833758
0.6986899563318778, 4.6449372927162225
0.6990233007766926, 2.214072853659135
0.6993566452215074, -1.8514540510321345
0.6996899896663222, -1.1219034955594767
0.700023334111137, -2.3061112627199067
0.700356678555952, -4.385222615382489
0.7006900230007668, -1.71268527156175
0.7010233674455816, -2.6399614703215244
0.7013567118903964, -1.0763354453725724
0.7016900563352112, 0.058524672204860906
0.702023400780026, 0.5790896615744503
0.7023567452248409, 0.6683310798779795
0.7026900896696557, -0.7833069824672878
0.7030234341144705, -0.8455567318345802
0.7033567785592854, -3.20031320858384
0.7036901230041002, -0.5196878396512914
0.704023467448915, -1.7000030311422556
0.7043568118937298, -2.3907877492124703
0.7046901563385447, -0.30688793019706884
0.7050235007833595, -4.4805541783728255
0.7053568452281743, -5.058715303724392
0.7056901896729891, -3.7754710671656335
0.7060235341178039, -3.021088998972231
0.7063568785626188, -5.217845662101772
0.7066902230074337, -4.2849935316757275
0.7070235674522485, -4.718960651873154
0.7073569118970633, -1.9420535884945171
0.7076902563418781, 4.806635170414356
0.7080236007866929, 7.955736165657064
0.7083569452315077, 13.397934677550426
0.7086902896763226, 14.435041049392861
0.7090236341211374, 14.015729943151655
0.7093569785659523, 5.61763809691464
0.7096903230107671, 0.5420911079594735
0.7100236674555819, -5.300509370915559
0.7103570119003967, -8.18142846446598
0.7106903563452116, -12.105816417674973
0.7110237007900264, -26.288733537520763
0.7113570452348412, -15.63743090780017
0.711690389679656, -10.827736344794548
0.7120237341244708, -16.836191942417855
0.7123570785692857, -17.73670348935355
0.7126904230141006, -15.746351654050308
0.7130237674589154, -3.8696337236092972
0.7133571119037302, 20.524056044550115
0.713690456348545, 65.9508438397431
0.7140238007933598, 76.85377465104102
0.7143571452381746, 34.885748556435345
0.7146904896829894, -1.8569382573050817
0.7150238341278043, -16.945620154220478
0.7153571785726192, -17.67202792214808
0.715690523017434, -12.473928770699823
0.7160238674622488, -12.614752366114269
0.7163572119070636, -12.681692074131835
0.7166905563518784, -8.666258804589917
0.7170239007966933, -5.599336810250431
0.7173572452415081, -8.77147727685517
0.7176905896863229, -8.291505534918997
0.7180239341311377, -5.855232819927089
0.7183572785759526, -6.834211366943345
0.7186906230207674, -4.845521743005669
0.7190239674655823, -4.289345055890688
0.7193573119103971, -1.6951937824441243
0.7196906563552119, 0.3127249076046841
0.7200240008000267, 2.6086089780029056
0.7203573452448415, 2.974004069913159
0.7206906896896563, 2.051646592666043
0.7210240341344712, 5.714239438792022
0.7213573785792861, 4.610429003185507
0.7216907230241009, 4.551159159975346
0.7220240674689157, 7.268535754479103
0.7223574119137305, 7.487937610373178
0.7226907563585453, 5.021915620831984
0.7230241008033601, 4.5134536322911
0.723357445248175, 2.8727072559631943
0.7236907896929898, -2.3882485379310787
0.7240241341378046, -2.1816585534082753
0.7243574785826195, -3.2276626374327195
0.7246908230274343, -3.1551015513787553
0.7250241674722491, -2.007165417595799
0.725357511917064, -2.0688278687577655
0.7256908563618788, -0.7290753823316638
0.7260242008066936, -1.9383125221382587
0.7263575452515084, -0.4081169886414157
0.7266908896963232, 0.2387083269263357
0.727024234141138, 0.9227381349864174
0.727357578585953, 1.483305921383113
0.7276909230307678, 1.219494189803267
0.7280242674755826, 0.8234764511436039
0.7283576119203974, -1.5554484171181806
0.7286909563652122, -0.7238435424998426
0.729024300810027, -0.41536187014788584
0.7293576452548419, -0.16615967716441465
0.7296909896996567, -1.3409272385735231
0.7300243341444715, -1.5362043446430562
0.7303576785892864, -2.286452860272288
0.7306910230341012, -3.879269941582244
0.731024367478916, -2.197487714800125
0.7313577119237309, -3.233829763414685
0.7316910563685457, -3.030374264499576
0.7320244008133605, -3.6163996461404673
0.7323577452581753, -3.762935402447219
0.7326910897029901, -3.0194539836528733
0.7330244341478049, -0.39094907584757266
0.7333577785926197, 3.57685531322666
0.7336911230374347, 6.085889425058133
0.7340244674822495, 12.186955885992909
0.7343578119270643, 12.678263190685438
0.7346911563718791, 9.807699918881172
0.7350245008166939, 5.410996702787929
0.7353578452615087, 0.420375222069719
0.7356911897063236, -3.6880606512832257
0.7360245341511384, -7.993690872481005
0.7363578785959533, -9.608293076519717
0.7366912230407681, -12.433727820107107
0.7370245674855829, -12.373572218087004
0.7373579119303977, -12.86896382867054
0.7376912563752126, -12.045328074082127
0.7380246008200274, -15.245240908306922
0.7383579452648422, -15.70728682310949
0.738691289709657, -2.50787991392235
0.7390246341544718, 23.561801369830036
0.7393579785992866, 69.37113307354124
0.7396913230441016, 77.71155006546842
0.7400246674889164, 31.379654793640157
0.7403580119337312, -7.27601317709675
0.740691356378546, -18.52522922021648
0.7410247008233608, -17.40094995820322
0.7413580452681756, -16.3952570211546
0.7416913897129905, -16.66222571427022
0.7420247341578053, -16.273637995115728
0.7423580786026202, -13.064088672121493
0.742691423047435, -13.190121776218117
0.7430247674922498, -11.60991868548885
0.7433581119370646, -9.16819912709353
0.7436914563818794, -11.287127645681533
0.7440248008266943, -8.239233031338784
0.7443581452715091, -8.051885414760585
0.7446914897163239, -8.452790026013043
0.7450248341611387, -5.825770443277529
0.7453581786059535, -2.872766475882999
0.7456915230507684, 0.48928349588644426
0.7460248674955833, 2.4417054984084743
0.7463582119403981, 4.982484450145914
0.7466915563852129, 8.462475185574743
0.7470249008300277, 7.702488221378821
0.7473582452748425, 10.216198894954804
0.7476915897196573, 14.631808614244765
0.7480249341644722, 10.797937210844752
0.748358278609287, 12.676276387106855
0.7486916230541019, 8.365134470792231
0.7490249674989167, 8.680581586986937
0.7493583119437315, 2.102612393768845
0.7496916563885463, -13.525003779092842
0.7500250008333612, -0.8371438269269618
0.750358345278176, 2.937381720359155
0.7506916897229908, -1.3909825044081554
0.7510250341678056, 3.0364004116771666
0.7513583786126204, 3.3932148016937194
0.7516917230574353, 1.8331256317680562
0.7520250675022502, 0.3773439625313877
0.752358411947065, 1.4488969687579338
0.7526917563918798, 2.377791155345474
0.7530251008366946, -0.9788379480175506
0.7533584452815094, -2.7859054888825465
0.7536917897263242, -2.3378148704450514
0.754025134171139, -5.249432459707186
0.754358478615954, -3.571266572376728
0.7546918230607688, -3.0769235827979893
0.7550251675055836, -3.6898952172747825
0.7553585119503984, -3.2561773970655707
0.7556918563952132, -2.760896180910047
0.756025200840028, -4.717055175038073
0.7563585452848429, -5.877930852820995
0.7566918897296577, -3.3648427850540044
0.7570252341744725, -6.12411444113865
0.7573585786192873, -5.1145006963206825
0.7576919230641022, -4.542950443638118
0.758025267508917, -4.911809085868253
0.7583586119537319, -2.128485477370768
0.7586919563985467, -1.7346377355271172
0.7590253008433615, -0.8355162164192889
0.7593586452881763, 3.421013067712464
0.7596919897329911, 8.39920556279402
0.7600253341778059, 12.559749386803151
0.7603586786226209, 14.6351202165021
0.7606920230674357, 12.702038132701936
0.7610253675122505, 9.9122851821051
0.7613587119570653, 0.8906194783459673
0.7616920564018801, -3.7529090739620576
0.7620254008466949, -4.8156860360562135
0.7623587452915098, -11.358705940941205
0.7626920897363246, -11.3592666010192
0.7630254341811394, -11.901400158047554
0.7633587786259542, -11.702288481204416
0.7636921230707691, -7.363096950397812
0.7640254675155839, -12.835763492715198
0.7643588119603987, -18.710587129578418
0.7646921564052136, -9.777650752566931
0.7650255008500284, 13.097634687510212
0.7653588452948432, 54.43552399425194
0.765692189739658, 79.10007355483768
0.7660255341844728, 46.76178068297823
0.7663588786292876, -0.6817876232305835
0.7666922230741026, -17.8312589909658
0.7670255675189174, -17.254431284407907
0.7673589119637322, -17.35682138980531
0.767692256408547, -15.653407303242684
0.7680256008533618, -14.809139391146047
0.7683589452981766, -13.934077972120694
0.7686922897429915, -12.17221075948151
0.7690256341878063, -11.15499030553586
0.7693589786326211, -9.434101483978116
0.769692323077436, -10.359255301131714
0.7700256675222508, -8.600376370026515
0.7703590119670656, -6.562374371716741
0.7706923564118805, -4.698838081521153
0.7710257008566953, -2.7530015627429556
0.7713590453015101, -2.7723598869927955
0.7716923897463249, -0.9061743142933052
0.7720257341911397, 3.136305289382751
0.7723590786359545, 4.997807134840011
0.7726924230807695, 5.9999696550345245
0.7730257675255843, 9.957274628918107
0.7733591119703991, 9.815491553461584
0.7736924564152139, 11.942844099166066
0.7740258008600287, 11.599957205063781
0.7743591453048435, 7.905324916368858
0.7746924897496583, 7.3732495573505386
0.7750258341944732, 3.795830304294169
0.775359178639288, 1.1342636742562373
0.7756925230841029, -1.4130944138847523
0.7760258675289177, -2.1553508119782556
0.7763592119737325, -2.7187949783219807
0.7766925564185473, -1.5692628978595051
0.7770259008633622, -1.0984762230219454
0.777359245308177, -0.19534496527299372
0.7776925897529918, 1.465654758458898
0.7780259341978066, -0.10307172669568276
0.7783592786426214, -0.04335104003238427
0.7786926230874363, -0.3126927042093802
0.7790259675322512, 0.30272152850966816
0.779359311977066, -1.7807343376184308
0.7796926564218808, 0.37946353949847245
0.7800260008666956, -2.411756412968468
0.7803593453115104, -3.9604010954209414
0.7806926897563252, 1.903556038146832
0.7810260342011401, -1.8362983706601286
0.781359378645955, -5.762979847746775
0.7816927230907698, -3.2875447884992197
0.7820260675355846, -0.4186218060444791
0.7823594119803994, -6.243401942000966
0.7826927564252142, -4.160853859280585
0.7830261008700291, -4.530646370275117
0.7833594453148439, -6.149963883680436
0.7836927897596587, -0.9194547927559882
0.7840261342044735, -4.5502723272618955
0.7843594786492883, -6.1920195251230075
0.7846928230941032, -3.463244139613094
0.785026167538918, 2.7945103893573213
0.7853595119837329, 4.1186270180999855
0.7856928564285477, 8.07572720567233
0.7860262008733625, 14.320168777294539
0.7863595453181773, 13.586455166655394
0.7866928897629921, 11.355051128148993
0.7870262342078069, 6.1982017318209
0.7873595786526218, -2.526208383862526
0.7876929230974367, -3.228226827398614
0.7880262675422515, -9.095225261827942
0.7883596119870663, -21.790322067699204
0.7886929564318811, -12.197218216212132
0.7890263008766959, -9.506295314623287
0.7893596453215108, -12.779172436538813
0.7896929897663256, -11.308321686297626
0.7900263342111404, -15.882026324931378
0.7903596786559552, -14.07097053731623
0.79069302310077, -5.604003776818133
0.7910263675455849, 28.343817130930333
0.7913597119903998, 71.94001263166082
0.7916930564352146, 72.0502902621274
0.7920264008800294, 31.645066782648524
0.7923597453248442, -4.88010396673803
0.792693089769659, -14.57075728048242
0.7930264342144738, -11.42576453915182
0.7933597786592886, -12.759839028733118
0.7936931231041036, -13.61484049463
0.7940264675489184, -9.943393143744206
0.7943598119937332, -7.518041170639295
0.794693156438548, -9.11594642104915
0.7950265008833628, -10.234419613228912
0.7953598453281776, -10.255640166785728
0.7956931897729925, -9.872555724251795
0.7960265342178073, -8.33784853773746
0.7963598786626221, -8.531309083435477
0.796693223107437, -7.348094546002141
0.7970265675522518, -5.285176724364283
0.7973599119970666, -3.28975319689924
0.7976932564418815, -3.1783555784031954
0.7980266008866963, -3.1841217518922074
0.7983599453315111, -0.22790089465412589
0.7986932897763259, 2.935442673039777
0.7990266342211407, 5.567838897917434
0.7993599786659555, 4.030549197345245
0.7996933231107705, 5.221119544920517
0.8000266675555853, 9.06137802666159
0.8003600120004001, 6.7505563818256675
0.8006933564452149, 4.986292372176422
0.8010267008900297, 3.1791028031791093
0.8013600453348445, 1.761826027905776
0.8016933897796594, 2.5295600522403996
0.8020267342244742, 1.3470740012384859
0.802360078669289, 1.816627960651842
0.8026934231141039, 1.7105721193844343
0.8030267675589187, 0.040069098515061796
0.8033601120037335, 1.8345006524532255
0.8036934564485483, 4.183236518569314
0.8040268008933632, 2.714092221385068
0.804360145338178, 2.216922208197728
0.8046934897829928, 1.3536502129389252
0.8050268342278076, -0.8935295454542553
0.8053601786726224, 0.7612087130594622
0.8056935231174372, -0.18032759315505886
0.8060268675622522, -1.0552597483271156
0.806360212007067, 0.33176202377745956
0.8066935564518818, -1.086987264509963
0.8070269008966966, -1.3742404985521657
0.8073602453415114, -2.320074995013615
0.8076935897863262, -2.3083826710056585
0.8080269342311411, -2.7328404440800145
0.808360278675956, -4.471485119806853
0.8086936231207708, -2.2972568237410442
0.8090269675655856, -3.8507303223099676
0.8093603120104004, -4.98084489453799
0.8096936564552152, -4.418574891089687
0.8100270009000301, -5.744219132732858
0.8103603453448449, -2.1375317827781517
0.8106936897896597, 0.46442628311211065
0.8110270342344745, 3.0340546126310683
0.8113603786792893, 7.710756219915163
0.8116937231241041, 9.142261554633105
0.8120270675689191, 6.067092362195277
0.8123604120137339, 3.244822020925863
0.8126937564585487, -2.40063006152246
0.8130271009033635, -11.579990077458444
0.8133604453481783, -10.6448645084212
0.8136937897929931, -10.230161073989914
0.8140271342378079, -12.640035530887605
0.8143604786826228, -12.588749475019336
0.8146938231274377, -12.373664593469998
0.8150271675722525, -11.544538505760368
0.8153605120170673, -14.829994332882158
0.8156938564618821, -14.01479174273754
0.8160272009066969, -6.977967258172988
0.8163605453515118, 19.042036054430937
0.8166938897963266, 60.22781644055121
0.8170272342411414, 73.62822130387954
0.8173605786859562, 49.834983077158135
0.817693923130771, 13.717406810637142
0.8180272675755859, -9.120189676939855
0.8183606120204008, -11.735038205550724
0.8186939564652156, -10.620896298177335
0.8190273009100304, -12.78453952439014
0.8193606453548452, -11.673218317557941
0.81969398979966, -9.49048026952775
0.8200273342444748, -10.307316573490027
0.8203606786892897, -7.909448111934332
0.8206940231341046, -3.5764868790152295
0.8210273675789194, -6.090170693818734
0.8213607120237342, -7.553209872014625
0.821694056468549, -6.071984942299443
0.8220274009133638, -8.321329409096947
0.8223607453581787, -7.888000653971457
0.8226940898029935, -3.964980401193592
0.8230274342478083, -4.571350255602366
0.8233607786926231, -4.557492670589254
0.823694123137438, -0.16124929338128613
0.8240274675822528, -0.15320717303745202
0.8243608120270676, 0.293346133822463
0.8246941564718825, 4.215934778746014
0.8250275009166973, 3.7344537903194723
0.8253608453615121, 3.537614195839034
0.8256941898063269, 7.100808038106008
0.8260275342511417, 4.811210303724698
0.8263608786959565, 2.3369379178761083
0.8266942231407715, 3.036945808876199
0.8270275675855863, 0.4039281800469252
0.8273609120304011, 0.2043065055219695
0.8276942564752159, 1.288753911292721
0.8280276009200307, 1.2847578055278879
0.8283609453648455, 0.006321540800561909
0.8286942898096604, 1.2342459838650592
0.8290276342544752, 2.5910234869507156
0.82936097869929, 1.005585049787127
0.8296943231441049, 2.0809096768190516
0.8300276675889197, 1.5650786955582103
0.8303610120337345, -0.4983354473244701
0.8306943564785494, -0.0943328003411259
0.8310277009233642, -2.1427125555434188
0.831361045368179, -6.948678467849936
0.8316943898129938, -4.869517455398909
0.8320277342578086, -3.948585328533041
0.8323610787026234, -5.707296011632876
0.8326944231474384, -4.034164233245877
0.8330277675922532, -1.6782250226107647
0.833361112037068, 2.8449245091417446
0.8336944564818828, 7.220279090363956
0.8340278009266976, 11.713275297199662
0.8343611453715124, 11.024844032953284
0.8346944898163272, 7.566268300941717
0.8350278342611421, 2.800173986318429
0.8353611787059569, -2.618073633026901
0.8356945231507718, -7.38087112650164
0.8360278675955866, -11.856836511299527
0.8363612120404014, -12.463123217739081
0.8366945564852162, -13.139904651779773
0.8370279009300311, -12.42948263083958
0.8373612453748459, -13.418919742385228
0.8376945898196607, -13.305994199079537
0.8380279342644755, -16.614737895791198
0.8383612787092903, -19.147913969950633
0.8386946231541051, -6.642682088848281
0.8390279675989201, 24.988277618675816
0.8393613120437349, 65.55409865006415
0.8396946564885497, 75.0742967810435
0.8400280009333645, 43.97831639722117
0.8403613453781793, 4.126611773880306
0.8406946898229941, -13.428207237075075
0.841028034267809, -14.79760779583929
0.8413613787126238, -14.768627919642164
0.8416947231574387, -15.623217437140573
0.8420280676022535, -12.15844619063213
0.8423614120470683, -8.289790034980435
0.8426947564918831, -11.687774633279943
0.843028100936698, -9.781419052443825
0.8433614453815128, -11.393506740032592
0.8436947898263276, -9.139342540799824
0.8440281342711424, -4.254810106269511
0.8443614787159572, -7.44905458736743
0.844694823160772, -7.214195724215823
0.8450281676055869, -4.808385437711885
0.8453615120504018, -2.210567391503118
0.8456948564952166, -3.2951133616422137
0.8460282009400314, -1.205097082704225
0.8463615453848462, 2.0498840821865354
0.846694889829661, 2.8107163576523986
0.8470282342744758, 4.219888946983447
0.8473615787192907, 5.823360535593771
0.8476949231641056, 9.226621914822902
0.8480282676089204, 8.812620343410984
0.8483616120537352, 6.082977609047647
0.84869495649855, 4.763176082407328
0.8490283009433648, 5.79368402031457
0.8493616453881797, 1.6662552225356904
0.8496949898329945, 0.35732114326370024
0.8500283342778093, 4.5115133671448095
0.8503616787226241, 0.776572915168543
0.850695023167439, 1.2756470835025544
0.8510283676122538, 2.0674958642843944
0.8513617120570687, 0.9185919239126097
0.8516950565018835, 2.2576607700656055
0.8520284009466983, 0.3936813075944381
0.8523617453915131, -0.6274231244286355
0.8526950898363279, -1.334230386836531
0.8530284342811427, -0.579160202309517
0.8533617787259575, -1.2750171895644757
0.8536951231707725, -2.6114581855448264
0.8540284676155873, -2.4111511376173578
0.8543618120604021, -3.754482774555735
0.8546951565052169, -4.706130440115871
0.8550285009500317, -4.040888675496246
0.8553618453948465, -5.117828808284486
0.8556951898396614, -5.490881032709858
0.8560285342844762, -2.6111027355857694
0.856361878729291, -4.101245618463533
0.8566952231741058, -5.165302102914555
0.8570285676189207, -4.842423946515322
0.8573619120637355, -3.7732776447931604
0.8576952565085504, -1.6656455940953636
0.8580286009533652, 0.5677237192050342
0.85836194539818, 8.483586568836271
0.8586952898429948, 11.866716331962497
0.8590286342878096, 13.654317927636775
0.8593619787326244, 14.142857447102617
0.8596953231774394, 4.887628081834775
0.8600286676222542, -1.57944628786574
0.860362012067069, -5.779770998242331
0.8606953565118838, -11.277401028362808
0.8610287009566986, -13.314204255181737
0.8613620454015134, -11.931276886203042
0.8616953898463283, -10.68984762279631
0.8620287342911431, -10.520679268104061
0.8623620787359579, -10.896079168831367
0.8626954231807727, -15.020894559053053
0.8630287676255876, -13.941803422883146
0.8633621120704024, -4.403947488214153
0.8636954565152172, 23.14681031280464
0.8640288009600321, 68.35447095016848
0.8643621454048469, 79.33399278032643
0.8646954898496617, 41.267044112590526
0.8650288342944765, -0.41915629157693957
0.8653621787392913, -16.66694986140679
0.8656955231841061, -17.15370776692123
0.8660288676289211, -17.45695855882238
0.8663622120737359, -15.913673500095024
0.8666955565185507, -15.116385203990943
0.8670289009633655, -14.742512170238337
0.8673622454081803, -12.662989985115125
0.8676955898529951, -10.673253713565583
0.86802893429781, -11.125059243847282
0.8683622787426248, -9.715195985284396
0.8686956231874396, -6.549100281416706
0.8690289676322545, -9.844060830943013
0.8693623120770693, -8.001778749453244
0.8696956565218841, -8.003874776911623
0.870029000966699, -5.558814756205648
0.8703623454115138, 2.8742270318871617
0.8706956898563286, 1.7199222753478072
0.8710290343011434, 2.8419469811451212
0.8713623787459582, 6.817136835346804
0.871695723190773, 9.909674943298882
0.872029067635588, 8.76901254136498
0.8723624120804028, 9.04325108569315
0.8726957565252176, 9.652295842123143
0.8730291009700324, 5.182772280939202
0.8733624454148472, 4.553900441527406
0.873695789859662, 4.272617288003101
0.8740291343044768, 0.5373549993615381
0.8743624787492917, -0.7120245151267639
0.8746958231941065, 1.6201056936231595
0.8750291676389214, -3.753384233913172
0.8753625120837362, -2.229973579419112
0.875695856528551, 1.2007419238873795
0.8760292009733658, -0.07685967801528393
0.8763625454181807, 5.2108462252898295
0.8766958898629955, 3.0153205853349583
0.8770292343078103, 1.3146042315157427
0.8773625787526251, 2.010036047005023
0.8776959231974399, 3.509904186267696
0.8780292676422548, 2.906155795759297
0.8783626120870697, -2.2394815169601197
0.8786959565318845, -0.2738606319835668
0.8790293009766993, -1.9843496741758762
0.8793626454215141, -5.501601605143923
0.8796959898663289, -3.772142117526056
0.8800293343111437, -4.753266858242696
0.8803626787559586, -6.638893753306993
0.8806960232007734, -4.011149968684662
0.8810293676455883, -1.6083349391622668
0.8813627120904031, -4.261853126174503
0.8816960565352179, -4.692179741063777
0.8820294009800327, -5.496210025199993
0.8823627454248476, -5.888543517200265
0.8826960898696624, -2.712272363735122
0.8830294343144772, -5.179083277165787
0.883362778759292, -2.918553811200934
0.8836961232041068, 4.470427301968815
0.8840294676489217, 7.868206674544253
0.8843628120937365, 12.101777409264038
0.8846961565385514, 14.632105319541212
0.8850295009833662, 12.75139157773966
0.885362845428181, 8.367772677211514
0.8856961898729958, 3.440618791576986
0.8860295343178106, -3.915871200153422
0.8863628787626254, -7.826273177574174
0.8866962232074403, -8.19944278499516
0.8870295676522552, -11.056924362774275
0.88736291209707, -11.46204479696192
0.8876962565418848, -11.262607703852089
0.8880296009866996, -11.690046887412558
0.8883629454315144, -14.452634036763461
0.8886962898763293, -16.88079599502709
0.8890296343211441, -9.634190415414883
0.8893629787659589, 12.958697412815932
0.8896963232107737, 55.18536987847105
0.8900296676555886, 77.81359752377077
0.8903630121004034, 45.998757164833336
0.8906963565452183, 2.660743002393769
0.8910297009900331, -16.19850779967028
0.8913630454348479, -18.530502780794667
0.8916963898796627, -16.408233647879985
0.8920297343244775, -15.791526151503792
0.8923630787692923, -14.63409593994975
0.8926964232141072, -13.144671476835668
0.8930297676589221, -11.885833034935182
0.8933631121037369, -10.596196344815771
0.8936964565485517, -10.17962544845476
0.8940298009933665, -10.134217087285435
0.8943631454381813, -9.535029279094692
0.8946964898829961, -7.730953582655018
0.895029834327811, -5.970141883137968
0.8953631787726258, -5.348107431022662
0.8956965232174406, -2.496093944997644
0.8960298676622555, -0.9446968142639216
0.8963632121070703, -1.111316632567389
0.8966965565518851, 3.513651934628555
0.8970299009967, 6.2030281286436395
0.8973632454415148, 6.046904093406223
0.8976965898863296, 9.483319524660804
0.8980299343311444, 13.658067019231009
0.8983632787759592, 11.77751563923234
0.898696623220774, 9.336698256498021
0.899029967665589, 9.134769789594781
0.8993633121104038, 4.065858166672128
0.8996966565552186, 1.5947367440012306
0.9000300010000334, 1.8284109132551052
0.9003633454448482, 0.18107311607732157
0.900696689889663, 1.6092533797279254
0.9010300343344779, 0.9009082685981968
0.9013633787792927, -2.605816901457819
0.9016967232241075, -0.25251871559523353
0.9020300676689224, 1.1688123664900834
0.9023634121137372, -1.29693612667075
0.902696756558552, -0.08124771036401279
0.9030301010033669, -0.25847308358752535
0.9033634454481817, -0.3684045723842281
0.9036967898929965, -1.171248029055024
0.9040301343378113, -2.6974062998141326
0.9043634787826261, -1.0804099477268267
0.9046968232274409, -2.057558400188012
0.9050301676722557, -1.0441966561055789
0.9053635121170707, -2.420180147318195
0.9056968565618855, -4.127249848174069
0.9060302010067003, -3.7478160526586466
0.9063635454515151, -4.382621629981171
0.9066968898963299, -2.0131566242540075
0.9070302343411447, -1.8296746449269135
0.9073635787859596, -2.2169587439890193
0.9076969232307744, -3.440392965537196
0.9080302676755893, -3.393324272928281
0.9083636121204041, -5.143031792748203
0.9086969565652189, -4.597553986518636
0.9090303010100337, -0.8432809550151368
0.9093636454548486, -1.8808065358001178
0.9096969898996634, -0.45465519791387843
0.9100303343444782, 3.7372278418779246
0.910363678789293, 9.075079136981808
0.9106970232341078, 11.28468462075003
0.9110303676789226, 10.752752670043156
0.9113637121237376, 6.835353803599099
0.9116970565685524, 2.5475706920959795
0.9120304010133672, -1.5112920507472003
0.912363745458182, -6.586163115682195
0.9126970899029968, -9.66085735197656
0.9130304343478116, -8.680436539844433
0.9133637787926265, -5.554749856596292
0.9136971232374413, -10.73076551883716
0.9140304676822562, -11.188907495306927
0.914363812127071, -12.6903359278039
0.9146971565718858, -16.61165128618162
0.9150305010167006, -11.485802268086866
0.9153638454615154, -2.90149075736218
0.9156971899063303, 25.953017675567708
0.9160305343511451, 64.86191694490586
0.9163638787959599, 71.66606225239727
0.9166972232407747, 38.618851398007365
0.9170305676855895, -1.3509171861195668
0.9173639121304044, -17.66123498175233
0.9176972565752193, -18.148046866856117
0.9180306010200341, -18.978792011623426
0.9183639454648489, -15.814193216951011
0.9186972899096637, -14.310093461046275
0.9190306343544785, -13.461110466830602
0.9193639787992933, -10.621437539020592
0.9196973232441082, -9.199083544631982
0.920030667688923, -6.889798948093238
0.9203640121337379, -8.11040780351519
0.9206973565785527, -8.121114518867092
0.9210307010233675, -7.23213337832776
0.9213640454681823, -4.355851364992387
0.9216973899129972, -3.556288457723352
0.922030734357812, -4.658058587163892
0.9223640788026268, -0.046816104547414916
0.9226974232474416, 3.9068581733241023
0.9230307676922564, 4.335748828782945
0.9233641121370713, 4.294778329069756
0.9236974565818861, 6.613524995444701
0.924030801026701, 5.495890726390732
0.9243641454715158, 6.78262236706429
0.9246974899163306, 9.533362754102702
0.9250308343611454, 7.818742438441761
0.9253641788059602, 5.449173183175418
0.925697523250775, 1.6927245192831846
0.92603086769559, 2.2848413485608017
0.9263642121404048, 1.3866148515298389
0.9266975565852196, -1.9329799983095022
0.9270309010300344, -0.09772728084796345
0.9273642454748492, -0.19745616767614926
0.927697589919664, -0.737922876100602
0.9280309343644789, -0.5201099404034881
0.9283642788092937, -2.493727667024516
0.9286976232541085, 0.07301505252648832
0.9290309676989233, 0.6884464276205767
0.9293643121437382, -1.4514197850635369
0.929697656588553, -1.1336542476789255
0.9300310010333679, -1.1213625223661154
0.9303643454781827, -0.9118448511473123
0.9306976899229975, -2.9448338289929463
0.9310310343678123, -4.6196605249943286
0.9313643788126271, -3.900913812557232
0.9316977232574419, -2.2564948419589985
0.9320310677022569, -2.9407747998784193
0.9323644121470717, -3.84192024467747
0.9326977565918865, -4.998220479889153
0.9330311010367013, -3.402749663019068
0.9333644454815161, 1.99439694082387
0.9336977899263309, 1.0416112990942148
0.9340311343711457, 4.0918505102018585
0.9343644788159606, 10.487744824020828
0.9346978232607754, 12.330997373609573
0.9350311677055902, 7.945188177922551
0.9353645121504051, 1.7369209984127019
0.9356978565952199, 0.4249914286147378
0.9360312010400347, -7.667531634185885
0.9363645454848496, -8.068993935125892
0.9366978899296644, -4.860598463854036
0.9370312343744792, -11.536479179182686
0.937364578819294, -10.833372616032829
0.9376979232641088, -9.967181805463074
0.9380312677089236, -13.605094445130304
0.9383646121537386, -16.331318754254298
0.9386979565985534, -15.227493441468923
0.9390313010433682, -8.584683328758333
0.939364645488183, 15.226261338602113
0.9396979899329978, 55.3140319256307
0.9400313343778126, 74.68125354721568
0.9403646788226275, 55.38364078527308
0.9406980232674423, 15.078769630369885
0.9410313677122571, -12.391045079194893
0.941364712157072, -19.615553216147376
0.9416980566018868, -19.057437256419636
0.9420314010467016, -15.414652032264668
0.9423647454915165, -16.682859369312716
0.9426980899363313, -17.318704441725984
0.9430314343811461, -12.339182758385306
0.9433647788259609, -11.323208752871468
0.9436981232707757, -9.08972205519093
0.9440314677155905, -6.424885911208612
0.9443648121604054, -8.978785442987114
0.9446981566052203, -6.626337105680294
0.9450315010500351, -7.025162898147355
0.9453648454948499, -6.936396855385369
0.9456981899396647, -2.224482157755176
0.9460315343844795, -3.3623717902755423
0.9463648788292943, -1.5607803640511104
0.9466982232741092, 3.1014470355169963
0.947031567718924, 4.981417078564933
0.9473649121637389, 5.4791924822004585
0.9476982566085537, 7.413121108210374
0.9480316010533685, 8.80855321276842
0.9483649454981833, 9.74540515665476
0.9486982899429982, 11.129323946363455
0.949031634387813, 6.997313981421819
0.9493649788326278, 4.471911277569156
0.9496983232774426, 4.201127904307229
0.9500316677222574, -0.14839245698095205
0.9503650121670723, -2.5989023507350844
0.9506983566118872, -0.7295208354457241
0.951031701056702, -0.35343572505240584
0.9513650455015168, 0.7241172131689635
0.9516983899463316, 1.9830338413873645
0.9520317343911464, -0.7902045780473717
0.9523650788359612, -0.5558623418811628
0.9526984232807761, -0.2670183702095288
0.953031767725591, -1.9523795365456589
0.9533651121704058, -2.691111853765507
0.9536984566152206, -3.202623585455871
0.9540318010600354, -2.0410326034474213
0.9543651455048502, -3.3112092341728236
0.954698489949665, -3.293103987628326
0.9550318343944799, -3.287997307010417
0.9553651788392947, -5.42177433987353
0.9556985232841095, -4.148864580453213
0.9560318677289243, -2.397553128548278
0.9563652121737392, 2.0835866890541284
0.956698556618554, 5.8114011808287325
0.9570319010633689, 9.385699712100934
0.9573652455081837, 11.229341318296434
0.9576985899529985, 9.746407706265847
0.9580319343978133, 6.857120346281932
0.9583652788426281, -1.8175704966842985
0.9586986232874429, -5.3397966558907655
0.9590319677322579, -9.256409397057874
0.9593653121770727, -12.42829298627014
0.9596986566218875, -12.500472525314668
0.9600320010667023, -13.485561081891642
0.9603653455115171, -12.490102856528
0.9606986899563319, -13.566694730775959
0.9610320344011468, -16.20815463710514
0.9613653788459616, -18.678514240244017
0.9616987232907764, -6.698435673590212
0.9620320677355912, 20.225905012116893
0.962365412180406, 64.94093942333848
0.9626987566252209, 83.22632051925106
0.9630321010700358, 40.58947254676465
0.9633654455148506, -0.6044365408862014
0.9636987899596654, -15.853317782550546
0.9640321344044802, -18.237265627425103
0.964365478849295, -18.439222328863824
0.9646988232941098, -16.699407012407473
0.9650321677389246, -13.169317558448759
0.9653655121837396, -16.061291530977662
0.9656988566285544, -13.010835787222113
0.9660322010733692, -9.412226228798232
0.966365545518184, -10.917483956492
0.9666988899629988, -8.839083105496812
0.9670322344078136, -7.844415351758154
0.9673655788526285, -6.411897453581575
0.9676989232974433, -4.759371840975889
0.9680322677422581, -3.1725475501684386
0.968365612187073, 0.34625503271158387
0.9686989566318878, 2.87448560881964
0.9690323010767026, 6.449394018148729
0.9693656455215175, 5.763353220885262
0.9696989899663323, 9.498259098085324
0.9700323344111471, 10.553090191090064
0.9703656788559619, 8.431228857571478
0.9706990233007767, 12.299071859353257
0.9710323677455915, 8.206148837479184
0.9713657121904065, 6.02191889784457
0.9716990566352213, 4.823422954165302
0.9720324010800361, 1.6927431599134968
0.9723657455248509, -1.6734139599499205
0.9726990899696657, -3.7547869312860827
0.9730324344144805, -5.221842536128296
0.9733657788592954, -4.391404267381049
0.9736991233041102, -1.7772471719551715
0.974032467748925, -4.254171982123563
0.9743658121937399, -2.3450233368534277
0.9746991566385547, -2.3215648729600673
0.9750325010833695, 5.009182847576602
0.9753658455281843, 7.483406385617221
0.9756991899729992, 0.18092560363167398
0.976032534417814, 0.2593079493362651
0.9763658788626288, 0.07335983236681676
0.9766992233074436, -2.922440828162499
0.9770325677522584, -8.354901678447062
0.9773659121970732, -3.054344223408716
0.9776992566418882, -3.0663043244741166
0.978032601086703, -5.197192200218738
0.9783659455315178, -2.9578659757822807
0.9786992899763326, -6.449056402907132
0.9790326344211474, -4.904774443593066
0.9793659788659622, -0.895116783676702
0.9796993233107771, 0.18892928903208395
0.980032667755592, 1.435646348020419
0.9803660122004068, 13.357439416578023
0.9806993566452216, 14.586729407075905
0.9810327010900364, 10.57200451965334
0.9813660455348512, 6.656416040142739
0.9816993899796661, -5.2286333807412175
0.9820327344244809, -7.245724478877607
0.9823660788692957, -10.092407901366702
0.9826994233141105, -13.04490446181478
0.9830327677589253, -13.019141385434
0.9833661122037402, -11.72524233772675
0.9836994566485551, -10.954386554366277
0.9840328010933699, -12.323963260458743
0.9843661455381847, -14.810324219217474
0.9846994899829995, -12.90428551245504
0.9850328344278143, 2.499215817307066
0.9853661788726291, 37.478749152992506
0.9856995233174439, 78.0245181805828
0.9860328677622588, 68.80537820209408
0.9863662122070737, 20.760504936234888
0.9866995566518885, -10.90057527358379
0.9870329010967033, -18.34938527399481
0.9873662455415181, -16.584610179081658
0.9876995899863329, -16.390361154985946
0.9880329344311478, -15.185266582007545
0.9883662788759626, -12.448220299059884
0.9886996233207774, -12.655948181998653
0.9890329677655922, -12.586446522629844
0.989366312210407, -9.978899536307033
0.9896996566552219, -9.832593952394136
0.9900330011000368, -8.169416118529938
0.9903663455448516, -7.176401897340594
0.9906996899896664, -5.268625009523531
0.9910330344344812, -4.581203944576697
0.991366378879296, -5.325451398487263
